SpectraSuite Datei
++++++++++++++++++++++++++++++++++++
Datum: Mon Jan 12 06:06:49 CET 2004
Benutzer: Student
Dark-Spektrum vorhanden: Nein
Referenz-Spektrum vorhanden: Nein
Zahl der probierten Teilspektren: 1
Spektrometer: USB2+H04734
Integrationszeit (usec): 10000 (USB2+H04734)
Spektren Durchschnitt berechnet: 10 (USB2+H04734)
Boxcar Glättung: 0 (USB2+H04734)
Dunkelstromkorrektur: Nein (USB2+H04734)
Puls/Lampe aktiviert: Nein (USB2+H04734)
Correct for Detector Non-linearity: Nein (USB2+H04734)
Streulichtkorrektur: Nein (USB2+H04734)
Anzahl Pixel in verarbeitetem Spektrum: 2048
>>>>>Begin Processed Spectral Data<<<<<
418,45	1202,23
418,57	1202,23
418,69	1202,23
418,80	1120,42
418,92	1100,99
419,04	1085,40
419,16	1073,87
419,28	1063,25
419,40	1064,38
419,52	1063,93
419,64	1066,86
419,75	1072,51
419,87	1063,47
419,99	1076,81
420,11	1043,81
420,23	1092,40
420,35	1096,24
420,47	1115,45
420,58	1124,04
420,70	1116,58
420,82	1123,36
420,94	1138,50
421,06	1148,44
421,18	1166,52
421,29	1178,27
421,41	1197,71
421,53	1171,95
421,65	1190,70
421,77	1201,10
421,89	1225,28
422,00	1232,28
422,12	1229,57
422,24	1231,61
422,36	1248,33
422,48	1262,34
422,59	1237,26
422,71	1223,92
422,83	1234,54
422,95	1244,49
423,07	1257,14
423,18	1241,78
423,30	1248,78
423,42	1246,75
423,54	1261,21
423,66	1268,89
423,77	1274,09
423,89	1261,21
424,01	1247,88
424,13	1244,49
424,25	1260,31
424,36	1267,31
424,48	1263,70
424,60	1230,02
424,72	1258,50
424,84	1268,67
424,95	1252,40
425,07	1220,53
425,19	1233,87
425,31	1242,91
425,42	1260,76
425,54	1232,96
425,66	1239,74
425,78	1245,84
425,89	1243,81
426,01	1249,91
426,13	1232,51
426,25	1253,75
426,36	1265,50
426,48	1232,96
426,60	1264,83
426,72	1248,10
426,83	1222,79
426,95	1240,42
427,07	1244,49
427,19	1231,38
427,30	1234,32
427,42	1246,97
427,54	1243,58
427,66	1236,35
427,77	1224,60
427,89	1238,39
428,01	1231,83
428,12	1225,50
428,24	1221,89
428,36	1227,09
428,48	1233,64
428,59	1234,54
428,71	1233,41
428,83	1217,14
428,94	1247,42
429,06	1251,94
429,18	1250,14
429,30	1232,06
429,41	1250,81
429,53	1235,90
429,65	1242,45
429,76	1238,61
429,88	1239,06
430,00	1251,49
430,11	1255,11
430,23	1240,42
430,35	1249,68
430,47	1248,78
430,58	1253,75
430,70	1231,61
430,82	1262,57
430,93	1252,40
431,05	1247,20
431,17	1235,90
431,28	1250,36
431,40	1260,76
431,52	1241,32
431,63	1257,14
431,75	1243,58
431,87	1247,88
431,98	1252,62
432,10	1238,16
432,22	1239,29
432,33	1247,88
432,45	1243,36
432,56	1235,67
432,68	1270,48
432,80	1263,92
432,91	1271,83
433,03	1283,36
433,15	1297,14
433,26	1281,55
433,38	1294,66
433,50	1305,05
433,61	1332,39
433,73	1322,68
433,84	1334,88
433,96	1365,16
434,08	1395,90
434,19	1429,11
434,31	1504,59
434,43	1587,98
434,54	1689,22
434,66	1827,97
434,77	2004,02
434,89	2231,81
435,01	2507,50
435,12	2870,21
435,24	3330,08
435,35	3721,03
435,47	3939,56
435,59	3805,78
435,70	3469,51
435,82	2969,19
435,93	2399,26
436,05	1836,34
436,17	1484,48
436,28	1329,46
436,40	1284,26
436,51	1275,67
436,63	1285,62
436,74	1276,35
436,86	1276,80
436,98	1271,60
437,09	1272,51
437,21	1258,95
437,32	1274,54
437,44	1256,69
437,55	1253,07
437,67	1265,05
437,79	1248,78
437,90	1247,42
438,02	1261,44
438,13	1258,27
438,25	1277,71
438,36	1259,63
438,48	1241,32
438,59	1255,56
438,71	1256,92
438,83	1269,35
438,94	1259,18
439,06	1246,97
439,17	1246,29
439,29	1223,92
439,40	1250,59
439,52	1266,86
439,63	1248,78
439,75	1252,85
439,86	1251,72
439,98	1242,91
440,09	1246,52
440,21	1241,32
440,32	1251,27
440,44	1241,32
440,55	1239,52
440,67	1253,07
440,78	1255,33
440,90	1238,16
441,01	1242,00
441,13	1258,27
441,24	1281,55
441,36	1235,22
441,47	1246,97
441,59	1251,72
441,70	1258,95
441,82	1244,26
441,93	1232,96
442,05	1246,75
442,16	1259,63
442,28	1249,01
442,39	1240,19
442,51	1269,80
442,62	1258,27
442,74	1236,80
442,85	1253,75
442,97	1246,75
443,08	1233,41
443,20	1250,36
443,31	1249,01
443,43	1251,49
443,54	1262,11
443,66	1257,14
443,77	1235,67
443,88	1253,07
444,00	1264,83
444,11	1259,40
444,23	1243,13
444,34	1266,63
444,46	1241,55
444,57	1254,88
444,69	1242,68
444,80	1260,76
444,91	1249,46
445,03	1240,42
445,14	1251,27
445,26	1258,05
445,37	1232,06
445,49	1259,63
445,60	1247,65
445,71	1235,90
445,83	1236,35
445,94	1240,65
446,06	1233,87
446,17	1256,46
446,29	1240,42
446,40	1244,04
446,51	1246,75
446,63	1263,02
446,74	1251,27
446,86	1240,19
446,97	1245,39
447,08	1251,49
447,20	1248,78
447,31	1251,72
447,43	1253,98
447,54	1243,58
447,65	1252,17
447,77	1261,44
447,88	1252,85
448,00	1256,92
448,11	1223,02
448,22	1268,89
448,34	1242,00
448,45	1244,49
448,56	1249,01
448,68	1256,01
448,79	1241,10
448,90	1265,50
449,02	1242,68
449,13	1229,80
449,25	1240,42
449,36	1232,74
449,47	1244,49
449,59	1252,17
449,70	1261,89
449,81	1242,45
449,93	1244,26
450,04	1237,48
450,15	1238,16
450,27	1263,70
450,38	1249,91
450,49	1251,94
450,61	1231,15
450,72	1243,36
450,83	1245,39
450,95	1246,75
451,06	1239,29
451,17	1259,40
451,29	1267,09
451,40	1263,02
451,51	1261,21
451,63	1245,84
451,74	1263,70
451,85	1256,01
451,97	1266,41
452,08	1244,26
452,19	1250,36
452,31	1249,68
452,42	1232,96
452,53	1245,62
452,65	1255,33
452,76	1238,61
452,87	1253,30
452,98	1243,58
453,10	1252,85
453,21	1259,40
453,32	1255,33
453,44	1250,59
453,55	1251,94
453,66	1251,49
453,77	1247,88
453,89	1252,40
454,00	1258,27
454,11	1238,16
454,23	1242,23
454,34	1232,28
454,45	1249,46
454,56	1249,01
454,68	1242,91
454,79	1249,68
454,90	1268,89
455,01	1233,41
455,13	1264,15
455,24	1265,28
455,35	1257,37
455,46	1244,49
455,58	1257,59
455,69	1247,88
455,80	1226,86
455,91	1242,23
456,03	1244,71
456,14	1259,63
456,25	1247,88
456,36	1247,20
456,48	1258,05
456,59	1264,83
456,70	1246,07
456,81	1239,29
456,92	1255,79
457,04	1243,13
457,15	1249,68
457,26	1264,37
457,37	1267,31
457,49	1256,24
457,60	1241,32
457,71	1255,33
457,82	1260,76
457,93	1236,80
458,05	1243,58
458,16	1264,83
458,27	1245,84
458,38	1246,52
458,49	1236,13
458,61	1238,39
458,72	1243,81
458,83	1235,90
458,94	1228,89
459,05	1241,32
459,17	1246,52
459,28	1224,37
459,39	1230,70
459,50	1239,74
459,61	1253,30
459,72	1241,55
459,84	1244,26
459,95	1243,58
460,06	1257,59
460,17	1252,17
460,28	1253,75
460,39	1232,06
460,51	1240,65
460,62	1254,20
460,73	1249,91
460,84	1248,78
460,95	1259,85
461,06	1244,49
461,18	1246,52
461,29	1252,85
461,40	1248,78
461,51	1244,71
461,62	1264,60
461,73	1252,62
461,84	1266,41
461,96	1255,33
462,07	1249,91
462,18	1241,55
462,29	1242,45
462,40	1248,33
462,51	1260,98
462,62	1240,87
462,73	1264,83
462,85	1252,85
462,96	1239,97
463,07	1263,24
463,18	1247,65
463,29	1253,53
463,40	1259,63
463,51	1250,14
463,62	1234,09
463,73	1259,40
463,85	1252,85
463,96	1240,42
464,07	1253,30
464,18	1242,68
464,29	1258,05
464,40	1264,60
464,51	1252,85
464,62	1253,75
464,73	1239,29
464,84	1255,56
464,95	1216,24
465,06	1257,82
465,18	1247,42
465,29	1260,08
465,40	1241,10
465,51	1226,18
465,62	1256,24
465,73	1245,16
465,84	1247,88
465,95	1252,62
466,06	1254,20
466,17	1248,78
466,28	1235,45
466,39	1248,10
466,50	1248,33
466,61	1272,06
466,72	1256,24
466,83	1268,89
466,95	1251,72
467,06	1232,28
467,17	1249,68
467,28	1237,03
467,39	1255,56
467,50	1257,14
467,61	1254,66
467,72	1255,11
467,83	1260,98
467,94	1237,26
468,05	1250,14
468,16	1246,52
468,27	1241,32
468,38	1262,34
468,49	1247,88
468,60	1238,84
468,71	1258,95
468,82	1248,10
468,93	1245,16
469,04	1268,22
469,15	1244,49
469,26	1257,59
469,37	1253,53
469,48	1243,58
469,59	1260,31
469,70	1231,61
469,81	1255,33
469,92	1261,89
470,03	1242,68
470,14	1237,93
470,25	1250,14
470,36	1241,55
470,47	1248,55
470,58	1260,53
470,69	1266,18
470,80	1255,79
470,91	1247,42
471,02	1256,24
471,13	1256,46
471,24	1266,41
471,35	1250,59
471,46	1237,48
471,56	1236,35
471,67	1254,43
471,78	1253,53
471,89	1275,45
472,00	1253,53
472,11	1264,60
472,22	1261,66
472,33	1257,14
472,44	1271,15
472,55	1249,01
472,66	1250,59
472,77	1258,95
472,88	1252,17
472,99	1235,67
473,10	1234,77
473,21	1244,26
473,32	1243,13
473,42	1229,12
473,53	1238,16
473,64	1257,59
473,75	1269,12
473,86	1272,73
473,97	1273,86
474,08	1261,44
474,19	1249,68
474,30	1251,49
474,41	1237,26
474,52	1249,23
474,62	1258,05
474,73	1245,16
474,84	1262,34
474,95	1250,59
475,06	1261,66
475,17	1263,70
475,28	1254,88
475,39	1255,33
475,50	1248,10
475,60	1251,94
475,71	1270,25
475,82	1259,18
475,93	1261,89
476,04	1253,07
476,15	1259,18
476,26	1265,96
476,37	1240,42
476,47	1258,50
476,58	1253,07
476,69	1266,86
476,80	1248,55
476,91	1256,92
477,02	1248,33
477,13	1250,81
477,23	1244,71
477,34	1259,40
477,45	1246,07
477,56	1249,23
477,67	1234,32
477,78	1242,00
477,89	1247,20
477,99	1238,61
478,10	1252,85
478,21	1252,17
478,32	1249,91
478,43	1251,49
478,54	1274,77
478,64	1269,80
478,75	1257,37
478,86	1254,43
478,97	1220,53
479,08	1259,18
479,18	1253,53
479,29	1237,03
479,40	1248,55
479,51	1264,83
479,62	1234,77
479,72	1257,82
479,83	1261,66
479,94	1240,65
480,05	1226,63
480,16	1256,46
480,26	1263,02
480,37	1247,42
480,48	1272,51
480,59	1266,86
480,70	1255,56
480,80	1271,38
480,91	1272,96
481,02	1257,59
481,13	1240,19
481,24	1259,18
481,34	1251,04
481,45	1246,52
481,56	1260,53
481,67	1224,37
481,77	1262,11
481,88	1261,44
481,99	1260,53
482,10	1252,40
482,20	1259,63
482,31	1246,97
482,42	1260,98
482,53	1247,88
482,63	1240,87
482,74	1231,83
482,85	1257,14
482,96	1253,75
483,06	1256,01
483,17	1265,96
483,28	1257,37
483,39	1239,29
483,49	1234,54
483,60	1248,10
483,71	1254,88
483,81	1274,32
483,92	1256,69
484,03	1238,84
484,14	1246,97
484,24	1244,94
484,35	1251,04
484,46	1252,85
484,57	1246,75
484,67	1264,15
484,78	1255,33
484,89	1248,78
484,99	1262,34
485,10	1264,15
485,21	1248,10
485,31	1260,31
485,42	1254,88
485,53	1248,55
485,63	1251,72
485,74	1246,52
485,85	1264,37
485,96	1261,21
486,06	1241,78
486,17	1247,42
486,28	1252,40
486,38	1251,27
486,49	1245,62
486,60	1257,82
486,70	1254,88
486,81	1260,98
486,92	1265,28
487,02	1267,54
487,13	1259,18
487,24	1247,42
487,34	1254,43
487,45	1253,53
487,56	1260,98
487,66	1267,31
487,77	1258,27
487,87	1243,13
487,98	1244,04
488,09	1259,18
488,19	1256,24
488,30	1267,31
488,41	1261,66
488,51	1260,76
488,62	1239,74
488,73	1253,30
488,83	1238,84
488,94	1246,97
489,04	1265,96
489,15	1255,56
489,26	1253,07
489,36	1247,42
489,47	1260,08
489,58	1256,46
489,68	1256,46
489,79	1250,36
489,89	1252,85
490,00	1258,72
490,11	1250,59
490,21	1261,66
490,32	1266,63
490,42	1258,95
490,53	1266,18
490,64	1264,60
490,74	1285,16
490,85	1280,42
490,95	1293,98
491,06	1328,33
491,16	1363,58
491,27	1385,05
491,38	1385,95
491,48	1369,91
491,59	1345,05
491,69	1317,03
491,80	1297,37
491,90	1268,22
492,01	1250,14
492,12	1256,46
492,22	1250,36
492,33	1268,67
492,43	1248,55
492,54	1248,10
492,64	1251,04
492,75	1253,75
492,86	1263,47
492,96	1258,05
493,07	1232,06
493,17	1251,27
493,28	1251,49
493,38	1257,59
493,49	1242,45
493,59	1254,43
493,70	1269,12
493,80	1244,26
493,91	1251,04
494,01	1241,55
494,12	1252,40
494,22	1262,34
494,33	1239,29
494,43	1248,10
494,54	1267,31
494,64	1250,59
494,75	1264,37
494,86	1255,56
494,96	1278,16
495,07	1272,06
495,17	1260,98
495,28	1255,33
495,38	1284,03
495,49	1279,06
495,59	1259,18
495,69	1287,65
495,80	1279,97
495,90	1257,82
496,01	1267,54
496,11	1262,79
496,22	1255,56
496,32	1236,58
496,43	1272,06
496,53	1267,99
496,64	1258,50
496,74	1244,49
496,85	1254,20
496,95	1248,33
497,06	1249,01
497,16	1244,26
497,27	1250,59
497,37	1253,53
497,48	1247,20
497,58	1264,83
497,68	1237,71
497,79	1267,31
497,89	1247,65
498,00	1264,15
498,10	1262,34
498,21	1257,59
498,31	1249,68
498,42	1258,27
498,52	1261,89
498,62	1252,85
498,73	1250,59
498,83	1262,34
498,94	1255,56
499,04	1253,98
499,15	1261,89
499,25	1257,82
499,35	1240,19
499,46	1249,01
499,56	1248,33
499,67	1259,18
499,77	1264,37
499,87	1251,72
499,98	1246,75
500,08	1249,46
500,19	1252,17
500,29	1254,66
500,39	1256,01
500,50	1254,20
500,60	1249,91
500,71	1286,52
500,81	1254,66
500,91	1272,73
501,02	1250,59
501,12	1258,27
501,22	1249,23
501,33	1245,84
501,43	1248,10
501,54	1257,14
501,64	1255,33
501,74	1244,94
501,85	1253,53
501,95	1235,22
502,05	1256,69
502,16	1262,79
502,26	1246,07
502,37	1254,66
502,47	1267,09
502,57	1260,53
502,68	1276,58
502,78	1251,94
502,88	1256,46
502,99	1260,76
503,09	1251,49
503,19	1251,04
503,30	1251,72
503,40	1261,89
503,50	1262,34
503,61	1268,89
503,71	1254,88
503,81	1247,88
503,92	1259,63
504,02	1253,75
504,12	1247,65
504,23	1252,17
504,33	1252,17
504,43	1250,14
504,54	1256,69
504,64	1267,54
504,74	1246,97
504,84	1270,48
504,95	1253,30
505,05	1258,27
505,15	1230,02
505,26	1238,61
505,36	1234,77
505,46	1249,68
505,56	1259,63
505,67	1260,76
505,77	1256,69
505,87	1252,17
505,98	1256,46
506,08	1265,73
506,18	1255,56
506,28	1252,40
506,39	1266,41
506,49	1230,93
506,59	1242,23
506,70	1262,79
506,80	1263,70
506,90	1230,48
507,00	1255,11
507,11	1246,07
507,21	1269,80
507,31	1262,11
507,41	1278,61
507,52	1242,00
507,62	1241,55
507,72	1253,07
507,82	1232,96
507,93	1259,18
508,03	1250,36
508,13	1244,04
508,23	1262,79
508,34	1253,30
508,44	1253,07
508,54	1241,55
508,64	1251,94
508,74	1276,12
508,85	1257,82
508,95	1264,60
509,05	1263,24
509,15	1240,65
509,26	1249,01
509,36	1257,37
509,46	1268,89
509,56	1262,11
509,66	1253,30
509,77	1251,72
509,87	1252,17
509,97	1260,08
510,07	1263,24
510,17	1257,59
510,28	1245,84
510,38	1249,01
510,48	1260,53
510,58	1256,24
510,68	1251,04
510,78	1270,25
510,89	1243,58
510,99	1260,98
511,09	1284,03
511,19	1258,95
511,29	1266,86
511,39	1264,60
511,50	1284,03
511,60	1252,62
511,70	1250,81
511,80	1248,55
511,90	1255,33
512,00	1261,89
512,11	1246,29
512,21	1264,37
512,31	1251,72
512,41	1244,49
512,51	1248,55
512,61	1253,07
512,71	1268,67
512,82	1251,94
512,92	1265,28
513,02	1257,59
513,12	1265,96
513,22	1265,28
513,32	1269,57
513,42	1244,26
513,53	1242,45
513,63	1255,79
513,73	1275,90
513,83	1278,38
513,93	1250,14
514,03	1253,30
514,13	1244,94
514,23	1246,07
514,33	1252,17
514,44	1247,42
514,54	1234,54
514,64	1253,53
514,74	1261,21
514,84	1254,20
514,94	1247,88
515,04	1251,94
515,14	1255,11
515,24	1241,10
515,34	1250,81
515,44	1241,32
515,55	1261,89
515,65	1264,37
515,75	1255,11
515,85	1247,42
515,95	1258,72
516,05	1255,33
516,15	1264,83
516,25	1246,07
516,35	1267,99
516,45	1267,99
516,55	1267,54
516,65	1253,53
516,75	1279,06
516,85	1264,83
516,95	1253,98
517,05	1253,07
517,16	1260,08
517,26	1237,48
517,36	1251,04
517,46	1227,54
517,56	1274,32
517,66	1243,36
517,76	1270,25
517,86	1263,47
517,96	1251,04
518,06	1246,07
518,16	1275,45
518,26	1248,33
518,36	1256,46
518,46	1257,82
518,56	1237,48
518,66	1271,38
518,76	1253,53
518,86	1250,59
518,96	1248,33
519,06	1257,37
519,16	1245,62
519,26	1251,72
519,36	1259,40
519,46	1264,83
519,56	1259,63
519,66	1263,47
519,76	1232,74
519,86	1262,34
519,96	1244,71
520,06	1254,43
520,16	1262,11
520,26	1273,19
520,36	1249,01
520,46	1240,19
520,56	1250,81
520,66	1256,24
520,76	1247,20
520,86	1244,94
520,96	1249,23
521,06	1257,59
521,16	1264,37
521,26	1242,45
521,35	1256,92
521,45	1264,83
521,55	1251,27
521,65	1244,71
521,75	1240,42
521,85	1260,53
521,95	1264,83
522,05	1253,98
522,15	1260,31
522,25	1245,84
522,35	1265,50
522,45	1249,01
522,55	1243,58
522,65	1270,25
522,75	1233,41
522,85	1277,48
522,94	1244,71
523,04	1253,98
523,14	1248,55
523,24	1235,00
523,34	1266,63
523,44	1260,98
523,54	1270,02
523,64	1240,42
523,74	1244,49
523,84	1252,40
523,94	1257,37
524,03	1256,69
524,13	1249,68
524,23	1264,37
524,33	1254,20
524,43	1280,64
524,53	1260,08
524,63	1237,26
524,73	1256,69
524,83	1247,88
524,92	1274,32
525,02	1268,22
525,12	1251,04
525,22	1246,07
525,32	1249,68
525,42	1249,01
525,52	1276,12
525,61	1254,88
525,71	1253,53
525,81	1247,65
525,91	1248,33
526,01	1270,48
526,11	1230,02
526,21	1254,66
526,30	1266,41
526,40	1248,33
526,50	1266,86
526,60	1254,43
526,70	1272,28
526,80	1240,87
526,89	1250,14
526,99	1255,11
527,09	1256,69
527,19	1258,72
527,29	1251,72
527,39	1251,49
527,48	1251,49
527,58	1274,54
527,68	1255,56
527,78	1244,26
527,88	1263,70
527,97	1253,75
528,07	1249,68
528,17	1265,96
528,27	1256,01
528,37	1240,65
528,46	1273,19
528,56	1267,54
528,66	1260,31
528,76	1248,78
528,86	1256,92
528,95	1265,28
529,05	1267,09
529,15	1236,80
529,25	1248,55
529,35	1250,81
529,44	1254,88
529,54	1264,60
529,64	1270,93
529,74	1229,12
529,83	1237,48
529,93	1253,30
530,03	1261,21
530,13	1246,29
530,22	1239,29
530,32	1254,88
530,42	1259,40
530,52	1242,00
530,61	1251,49
530,71	1258,72
530,81	1270,70
530,91	1260,31
531,00	1264,83
531,10	1260,08
531,20	1261,21
531,30	1262,57
531,39	1263,24
531,49	1275,22
531,59	1264,60
531,69	1248,33
531,78	1264,15
531,88	1252,40
531,98	1267,54
532,07	1257,14
532,17	1240,87
532,27	1258,50
532,37	1261,21
532,46	1257,82
532,56	1252,62
532,66	1276,12
532,75	1258,72
532,85	1252,62
532,95	1242,68
533,04	1262,57
533,14	1252,62
533,24	1247,42
533,34	1256,69
533,43	1269,12
533,53	1267,54
533,63	1263,02
533,72	1258,05
533,82	1253,53
533,92	1252,17
534,01	1257,59
534,11	1252,17
534,21	1258,05
534,30	1259,85
534,40	1261,89
534,50	1255,11
534,59	1252,40
534,69	1271,38
534,79	1271,83
534,88	1247,65
534,98	1265,73
535,08	1266,18
535,17	1240,65
535,27	1289,01
535,36	1266,63
535,46	1272,96
535,56	1254,66
535,65	1274,54
535,75	1277,25
535,85	1278,38
535,94	1273,41
536,04	1259,63
536,14	1292,17
536,23	1281,77
536,33	1263,24
536,42	1262,34
536,52	1265,28
536,62	1289,46
536,71	1283,36
536,81	1268,89
536,90	1274,09
537,00	1280,19
537,10	1266,41
537,19	1254,88
537,29	1251,94
537,38	1270,02
537,48	1272,96
537,58	1278,16
537,67	1265,28
537,77	1260,53
537,86	1269,35
537,96	1271,83
538,06	1260,76
538,15	1269,80
538,25	1257,82
538,34	1265,28
538,44	1267,54
538,53	1249,46
538,63	1274,32
538,73	1252,17
538,82	1265,73
538,92	1265,05
539,01	1256,01
539,11	1251,27
539,20	1280,19
539,30	1262,79
539,39	1269,12
539,49	1244,04
539,59	1244,04
539,68	1281,55
539,78	1256,46
539,87	1258,50
539,97	1261,44
540,06	1270,93
540,16	1263,02
540,25	1266,41
540,35	1272,96
540,44	1254,66
540,54	1254,20
540,63	1256,46
540,73	1260,76
540,82	1255,11
540,92	1261,21
541,01	1268,89
541,11	1259,63
541,20	1272,28
541,30	1268,22
541,39	1278,61
541,49	1260,08
541,58	1262,57
541,68	1277,93
541,77	1282,00
541,87	1254,43
541,96	1272,51
542,06	1284,71
542,15	1277,71
542,25	1290,36
542,34	1260,98
542,44	1274,54
542,53	1285,16
542,63	1262,11
542,72	1276,12
542,82	1284,49
542,91	1268,44
543,01	1294,66
543,10	1288,10
543,20	1275,22
543,29	1289,91
543,38	1294,43
543,48	1282,23
543,57	1314,32
543,67	1312,28
543,76	1277,03
543,86	1317,25
543,95	1314,09
544,05	1333,07
544,14	1332,17
544,23	1334,43
544,33	1347,31
544,42	1333,07
544,52	1335,78
544,61	1338,04
544,71	1376,24
544,80	1433,18
544,89	1582,11
544,99	1922,89
545,08	2424,57
545,18	3181,61
545,27	4170,51
545,36	5732,05
545,46	8507,35
545,55	12778,65
545,65	17609,71
545,74	21175,04
545,84	22599,63
545,93	22127,78
546,02	20846,91
546,12	18047,44
546,21	13655,91
546,30	8751,41
546,40	4790,83
546,49	2538,24
546,59	1863,00
546,68	1639,50
546,77	1487,64
546,87	1484,25
546,96	1449,00
547,05	1396,35
547,15	1392,05
547,24	1390,70
547,34	1380,08
547,43	1376,01
547,52	1356,57
547,62	1338,04
547,71	1323,58
547,80	1323,36
547,90	1320,64
547,99	1330,81
548,08	1317,03
548,18	1320,64
548,27	1322,90
548,36	1292,85
548,46	1317,03
548,55	1288,55
548,64	1298,04
548,74	1301,43
548,83	1290,59
548,92	1300,53
549,02	1301,21
549,11	1284,49
549,20	1285,62
549,30	1285,84
549,39	1284,49
549,48	1283,58
549,58	1283,36
549,67	1279,29
549,76	1279,06
549,85	1273,41
549,95	1271,15
550,04	1275,90
550,13	1289,01
550,23	1246,07
550,32	1270,02
550,41	1274,32
550,50	1279,51
550,60	1281,32
550,69	1279,74
550,78	1270,02
550,88	1273,86
550,97	1265,05
551,06	1265,50
551,15	1251,27
551,25	1260,76
551,34	1242,23
551,43	1258,72
551,52	1261,21
551,62	1267,09
551,71	1256,92
551,80	1280,42
551,89	1270,25
551,99	1262,57
552,08	1260,31
552,17	1263,92
552,26	1262,79
552,36	1266,41
552,45	1241,10
552,54	1236,80
552,63	1252,40
552,73	1250,59
552,82	1266,86
552,91	1263,92
553,00	1253,30
553,10	1296,46
553,19	1274,54
553,28	1246,97
553,37	1281,55
553,46	1264,83
553,56	1245,39
553,65	1261,66
553,74	1277,93
553,83	1247,42
553,92	1279,29
554,02	1253,30
554,11	1247,20
554,20	1258,27
554,29	1270,25
554,38	1259,63
554,48	1251,72
554,57	1267,54
554,66	1257,37
554,75	1251,27
554,84	1259,18
554,94	1261,89
555,03	1257,82
555,12	1260,76
555,21	1273,64
555,30	1261,66
555,39	1253,98
555,49	1240,19
555,58	1253,53
555,67	1262,79
555,76	1268,89
555,85	1250,59
555,94	1244,26
556,03	1247,88
556,13	1249,91
556,22	1234,54
556,31	1275,45
556,40	1248,10
556,49	1263,47
556,58	1253,75
556,67	1258,50
556,77	1256,01
556,86	1260,76
556,95	1256,46
557,04	1274,09
557,13	1255,56
557,22	1273,41
557,31	1243,36
557,40	1263,47
557,50	1266,86
557,59	1249,46
557,68	1256,46
557,77	1248,55
557,86	1264,15
557,95	1248,55
558,04	1257,37
558,13	1272,73
558,22	1231,38
558,31	1256,69
558,41	1233,41
558,50	1252,40
558,59	1244,94
558,68	1263,70
558,77	1251,04
558,86	1250,14
558,95	1259,85
559,04	1271,15
559,13	1269,12
559,22	1263,24
559,31	1227,99
559,40	1251,27
559,49	1271,83
559,59	1257,59
559,68	1252,17
559,77	1264,60
559,86	1263,02
559,95	1261,44
560,04	1271,15
560,13	1258,27
560,22	1251,04
560,31	1260,53
560,40	1249,46
560,49	1256,69
560,58	1258,50
560,67	1263,24
560,76	1261,21
560,85	1253,98
560,94	1258,95
561,03	1270,48
561,12	1263,47
561,21	1262,57
561,30	1232,06
561,39	1263,92
561,48	1255,11
561,57	1251,94
561,66	1255,56
561,75	1243,36
561,84	1264,37
561,93	1263,24
562,02	1237,48
562,11	1262,57
562,20	1267,31
562,29	1260,53
562,38	1260,98
562,47	1222,79
562,56	1255,56
562,65	1273,64
562,74	1257,59
562,83	1270,25
562,92	1253,75
563,01	1248,33
563,10	1249,23
563,19	1245,62
563,28	1262,79
563,37	1257,82
563,46	1255,33
563,55	1256,46
563,64	1253,53
563,73	1272,51
563,82	1256,92
563,91	1242,23
564,00	1240,87
564,09	1250,36
564,18	1244,94
564,27	1261,66
564,35	1269,80
564,44	1268,22
564,53	1251,04
564,62	1263,24
564,71	1265,96
564,80	1249,46
564,89	1261,21
564,98	1257,82
565,07	1265,96
565,16	1275,90
565,25	1252,62
565,34	1256,92
565,43	1242,91
565,51	1255,11
565,60	1276,35
565,69	1253,07
565,78	1263,47
565,87	1251,49
565,96	1266,63
566,05	1260,76
566,14	1259,85
566,23	1254,88
566,32	1245,16
566,40	1248,78
566,49	1251,27
566,58	1254,43
566,67	1241,10
566,76	1244,71
566,85	1270,25
566,94	1256,24
567,03	1250,59
567,11	1253,30
567,20	1260,98
567,29	1272,51
567,38	1240,87
567,47	1263,47
567,56	1273,64
567,65	1250,81
567,73	1240,42
567,82	1238,16
567,91	1266,63
568,00	1251,49
568,09	1259,85
568,18	1249,68
568,27	1239,52
568,35	1251,04
568,44	1264,83
568,53	1253,30
568,62	1239,06
568,71	1241,78
568,80	1267,31
568,88	1264,60
568,97	1248,10
569,06	1252,62
569,15	1255,11
569,24	1252,40
569,32	1274,32
569,41	1272,51
569,50	1245,62
569,59	1249,68
569,68	1271,38
569,76	1265,05
569,85	1267,31
569,94	1242,68
570,03	1259,40
570,12	1245,16
570,20	1268,44
570,29	1270,48
570,38	1253,07
570,47	1253,98
570,56	1248,78
570,64	1260,76
570,73	1267,54
570,82	1265,28
570,91	1251,94
570,99	1261,44
571,08	1253,53
571,17	1237,26
571,26	1258,72
571,34	1252,85
571,43	1265,96
571,52	1268,22
571,61	1260,31
571,69	1284,26
571,78	1254,88
571,87	1266,86
571,96	1265,28
572,04	1264,15
572,13	1262,34
572,22	1266,63
572,31	1264,60
572,39	1244,94
572,48	1273,64
572,57	1264,83
572,66	1274,54
572,74	1268,67
572,83	1260,53
572,92	1267,99
573,00	1261,89
573,09	1261,66
573,18	1246,75
573,27	1257,59
573,35	1267,76
573,44	1267,99
573,53	1270,93
573,61	1264,60
573,70	1266,41
573,79	1247,42
573,87	1258,27
573,96	1281,32
574,05	1271,83
574,14	1242,23
574,22	1271,38
574,31	1267,99
574,40	1279,74
574,48	1285,16
574,57	1288,10
574,66	1285,16
574,74	1278,16
574,83	1269,12
574,92	1292,62
575,00	1274,09
575,09	1286,52
575,18	1298,27
575,26	1320,87
575,35	1277,93
575,43	1309,57
575,52	1317,03
575,61	1339,17
575,69	1339,85
575,78	1359,29
575,87	1421,43
575,95	1497,14
576,04	1675,44
576,13	1954,30
576,21	2292,14
576,30	2767,61
576,38	3448,04
576,47	4410,28
576,56	5287,32
576,64	5779,51
576,73	5885,72
576,82	5768,21
576,90	5432,40
576,99	4947,89
577,07	4122,15
577,16	3110,65
577,25	2276,32
577,33	1785,72
577,42	1540,98
577,50	1429,11
577,59	1382,34
577,68	1362,00
577,76	1363,35
577,85	1381,88
577,93	1370,59
578,02	1460,98
578,10	1594,31
578,19	1757,69
578,28	2010,12
578,36	2439,26
578,45	2966,93
578,53	3719,45
578,62	4652,08
578,70	5258,39
578,79	5592,40
578,88	5613,86
578,96	5349,46
579,05	5016,37
579,13	4388,59
579,22	3569,85
579,30	2696,88
579,39	2039,27
579,47	1646,06
579,56	1507,76
579,64	1378,72
579,73	1389,12
579,82	1338,27
579,90	1348,89
579,99	1334,20
580,07	1327,42
580,16	1313,19
580,24	1320,87
580,33	1343,24
580,41	1300,08
580,50	1325,39
580,58	1305,50
580,67	1296,01
580,75	1288,33
580,84	1283,81
580,92	1300,08
581,01	1307,99
581,09	1274,77
581,18	1297,82
581,26	1291,94
581,35	1266,18
581,43	1261,21
581,52	1281,77
581,60	1289,68
581,69	1262,57
581,77	1264,37
581,86	1275,67
581,94	1262,79
582,02	1264,37
582,11	1257,14
582,19	1254,66
582,28	1261,89
582,36	1258,95
582,45	1257,37
582,53	1271,60
582,62	1255,56
582,70	1241,32
582,79	1262,57
582,87	1245,17
582,96	1266,63
583,04	1275,22
583,12	1258,50
583,21	1257,14
583,29	1253,53
583,38	1255,11
583,46	1255,79
583,55	1260,53
583,63	1253,30
583,71	1282,45
583,80	1250,81
583,88	1261,66
583,97	1278,61
584,05	1269,57
584,13	1267,09
584,22	1286,52
584,30	1271,83
584,39	1264,37
584,47	1254,20
584,55	1265,73
584,64	1250,81
584,72	1263,02
584,81	1258,27
584,89	1258,27
584,97	1248,33
585,06	1260,98
585,14	1258,50
585,23	1254,88
585,31	1244,94
585,39	1257,37
585,48	1257,82
585,56	1252,40
585,64	1270,02
585,73	1249,46
585,81	1239,97
585,90	1269,57
585,98	1269,57
586,06	1244,04
586,15	1255,33
586,23	1246,97
586,31	1260,53
586,40	1252,17
586,48	1263,24
586,56	1235,90
586,65	1280,19
586,73	1231,15
586,81	1250,59
586,90	1268,44
586,98	1256,46
587,06	1238,61
587,15	1262,57
587,23	1251,72
587,31	1252,85
587,40	1269,35
587,48	1244,49
587,56	1253,98
587,65	1255,11
587,73	1263,92
587,81	1255,56
587,90	1254,20
587,98	1249,46
588,06	1255,11
588,14	1259,63
588,23	1250,14
588,31	1262,34
588,39	1251,04
588,48	1267,31
588,56	1270,93
588,64	1272,28
588,72	1266,63
588,81	1252,17
588,89	1245,39
588,97	1265,28
589,06	1254,88
589,14	1245,62
589,22	1239,97
589,30	1249,91
589,39	1249,91
589,47	1244,04
589,55	1259,85
589,63	1249,23
589,72	1250,14
589,80	1267,54
589,88	1242,91
589,96	1246,07
590,05	1231,38
590,13	1244,71
590,21	1270,25
590,29	1246,29
590,38	1248,10
590,46	1270,70
590,54	1265,96
590,62	1247,20
590,71	1270,02
590,79	1259,40
590,87	1247,20
590,95	1267,99
591,03	1258,05
591,12	1237,26
591,20	1246,07
591,28	1254,66
591,36	1255,33
591,44	1246,75
591,53	1253,75
591,61	1256,01
591,69	1251,72
591,77	1261,89
591,85	1262,11
591,94	1295,56
592,02	1248,55
592,10	1265,05
592,18	1251,94
592,26	1263,24
592,34	1255,79
592,43	1245,62
592,51	1272,96
592,59	1253,75
592,67	1252,62
592,75	1255,79
592,84	1251,94
592,92	1241,32
593,00	1267,09
593,08	1267,09
593,16	1255,56
593,24	1244,71
593,32	1261,44
593,41	1268,67
593,49	1251,04
593,57	1248,10
593,65	1251,72
593,73	1244,26
593,81	1267,31
593,89	1269,35
593,98	1257,37
594,06	1236,80
594,14	1261,66
594,22	1258,95
594,30	1264,83
594,38	1237,26
594,46	1252,85
594,54	1263,70
594,62	1265,73
594,71	1247,88
594,79	1260,08
594,87	1258,95
594,95	1274,54
595,03	1259,40
595,11	1251,49
595,19	1271,83
595,27	1256,01
595,35	1262,34
595,43	1240,65
595,52	1235,90
595,60	1239,74
595,68	1261,44
595,76	1253,07
595,84	1270,93
595,92	1277,03
596,00	1254,20
596,08	1239,74
596,16	1261,89
596,24	1260,31
596,32	1262,79
596,40	1267,54
596,48	1271,60
596,56	1242,45
596,64	1247,65
596,73	1254,88
596,81	1251,49
596,89	1271,60
596,97	1256,92
597,05	1211,49
597,13	1236,35
597,21	1263,02
597,29	1245,62
597,37	1265,28
597,45	1243,81
597,53	1264,60
597,61	1263,47
597,69	1261,21
597,77	1228,67
597,85	1249,01
597,93	1267,54
598,01	1259,85
598,09	1259,18
598,17	1251,49
598,25	1260,76
598,33	1265,50
598,41	1251,27
598,49	1261,21
598,57	1245,84
598,65	1242,23
598,73	1227,54
598,81	1253,30
598,89	1260,31
598,97	1273,64
599,05	1256,69
599,13	1235,67
599,21	1251,04
599,29	1238,61
599,37	1267,09
599,45	1270,93
599,53	1285,84
599,61	1240,87
599,69	1238,61
599,77	1254,43
599,85	1253,53
599,93	1265,73
600,00	1251,49
600,08	1251,94
600,16	1265,05
600,24	1289,46
600,32	1253,53
600,40	1279,51
600,48	1275,67
600,56	1252,85
600,64	1262,57
600,72	1261,89
600,80	1267,76
600,88	1262,11
600,96	1254,66
601,04	1265,73
601,12	1263,02
601,19	1252,62
601,27	1239,74
601,35	1242,00
601,43	1256,92
601,51	1242,68
601,59	1255,79
601,67	1261,44
601,75	1270,48
601,83	1253,75
601,91	1258,50
601,98	1256,69
602,06	1244,26
602,14	1249,23
602,22	1254,20
602,30	1251,72
602,38	1261,44
602,46	1262,34
602,54	1244,94
602,61	1235,67
602,69	1257,14
602,77	1267,76
602,85	1252,40
602,93	1242,23
603,01	1255,79
603,09	1256,69
603,17	1258,50
603,24	1261,66
603,32	1258,72
603,40	1264,15
603,48	1241,55
603,56	1253,98
603,64	1235,00
603,71	1252,17
603,79	1262,11
603,87	1261,66
603,95	1250,81
604,03	1261,44
604,11	1237,93
604,18	1242,23
604,26	1245,17
604,34	1249,46
604,42	1236,58
604,50	1260,76
604,57	1248,55
604,65	1239,29
604,73	1249,01
604,81	1247,20
604,89	1270,48
604,96	1256,01
605,04	1238,84
605,12	1265,96
605,20	1260,31
605,28	1265,96
605,35	1249,91
605,43	1246,52
605,51	1244,26
605,59	1258,50
605,67	1258,05
605,74	1250,14
605,82	1264,83
605,90	1244,26
605,98	1248,55
606,05	1247,42
606,13	1230,48
606,21	1239,97
606,29	1254,20
606,36	1265,28
606,44	1258,05
606,52	1274,77
606,60	1267,99
606,67	1244,94
606,75	1244,04
606,83	1243,36
606,91	1271,38
606,98	1268,67
607,06	1265,28
607,14	1244,49
607,22	1269,57
607,29	1263,92
607,37	1238,39
607,45	1256,92
607,52	1243,36
607,60	1242,00
607,68	1266,63
607,76	1256,69
607,83	1253,98
607,91	1253,07
607,99	1253,75
608,06	1270,93
608,14	1266,41
608,22	1262,34
608,30	1243,36
608,37	1261,66
608,45	1269,35
608,53	1244,26
608,60	1253,98
608,68	1238,39
608,76	1264,60
608,83	1259,63
608,91	1258,05
608,99	1263,92
609,06	1256,24
609,14	1252,85
609,22	1247,88
609,29	1272,06
609,37	1257,14
609,45	1268,89
609,52	1266,86
609,60	1241,10
609,68	1264,60
609,75	1246,07
609,83	1234,54
609,91	1238,39
609,98	1260,08
610,06	1247,42
610,13	1242,91
610,21	1246,29
610,29	1260,98
610,36	1240,65
610,44	1260,31
610,52	1246,97
610,59	1253,75
610,67	1243,36
610,74	1253,75
610,82	1264,37
610,90	1279,29
610,97	1291,94
611,05	1251,49
611,13	1240,87
611,20	1255,79
611,28	1253,98
611,35	1264,83
611,43	1269,80
611,51	1262,79
611,58	1263,70
611,66	1239,97
611,73	1253,75
611,81	1282,00
611,88	1263,24
611,96	1234,09
612,04	1269,80
612,11	1249,91
612,19	1264,60
612,26	1263,02
612,34	1261,66
612,41	1239,06
612,49	1258,27
612,57	1264,83
612,64	1260,76
612,72	1252,85
612,79	1253,30
612,87	1260,31
612,94	1242,68
613,02	1242,45
613,09	1238,61
613,17	1245,84
613,24	1260,08
613,32	1258,50
613,40	1242,00
613,47	1248,33
613,55	1248,33
613,62	1259,85
613,70	1268,22
613,77	1252,62
613,85	1222,57
613,92	1250,59
614,00	1240,42
614,07	1257,59
614,15	1238,61
614,22	1247,20
614,30	1265,96
614,37	1245,16
614,45	1255,33
614,52	1257,14
614,60	1256,24
614,67	1254,20
614,75	1241,10
614,82	1244,94
614,90	1252,85
614,97	1246,52
615,05	1249,23
615,12	1251,49
615,20	1251,49
615,27	1240,42
615,34	1252,62
615,42	1256,24
615,49	1257,14
615,57	1242,00
615,64	1265,96
615,72	1256,24
615,79	1238,61
615,87	1240,65
615,94	1244,49
616,02	1258,50
616,09	1253,07
616,16	1236,58
616,24	1250,36
616,31	1250,14
616,39	1254,88
616,46	1240,87
616,54	1247,42
616,61	1243,36
616,68	1276,35
616,76	1269,80
616,83	1254,20
616,91	1232,51
616,98	1246,97
617,06	1256,69
617,13	1265,50
617,20	1255,33
617,28	1233,19
617,35	1235,45
617,43	1259,85
617,50	1258,27
617,57	1237,71
>>>>>End Processed Spectral Data<<<<<
