SpectraSuite Datei
++++++++++++++++++++++++++++++++++++
Datum: Mon Jan 12 07:46:13 CET 2004
Benutzer: Student
Dark-Spektrum vorhanden: Nein
Referenz-Spektrum vorhanden: Nein
Zahl der probierten Teilspektren: 1
Spektrometer: USB2+H04734
Integrationszeit (usec): 10000 (USB2+H04734)
Spektren Durchschnitt berechnet: 100 (USB2+H04734)
Boxcar Glättung: 0 (USB2+H04734)
Dunkelstromkorrektur: Nein (USB2+H04734)
Puls/Lampe aktiviert: Nein (USB2+H04734)
Correct for Detector Non-linearity: Nein (USB2+H04734)
Streulichtkorrektur: Nein (USB2+H04734)
Anzahl Pixel in verarbeitetem Spektrum: 2048
>>>>>Begin Processed Spectral Data<<<<<
418,45	1107,54
418,57	1107,54
418,69	1107,54
418,80	1028,54
418,92	1005,78
419,04	1005,04
419,16	989,92
419,28	979,39
419,40	975,93
419,52	978,78
419,64	974,96
419,75	977,65
419,87	985,42
419,99	980,58
420,11	994,03
420,23	995,93
420,35	1009,92
420,47	1018,41
420,58	1027,43
420,70	1041,51
420,82	1045,53
420,94	1056,74
421,06	1071,34
421,18	1084,36
421,29	2263,08
421,41	5334,26
421,53	5424,81
421,65	5475,00
421,77	5511,86
421,89	5568,55
422,00	5560,55
422,12	5598,56
422,24	5594,66
422,36	5665,86
422,48	5639,67
422,59	5617,66
422,71	5699,08
422,83	5696,60
422,95	5688,44
423,07	5671,49
423,18	5752,28
423,30	5784,35
423,42	5728,19
423,54	5758,97
423,66	5813,97
423,77	5832,25
423,89	5843,73
424,01	5877,95
424,13	5850,45
424,25	5892,57
424,36	5944,93
424,48	5979,87
424,60	5915,32
424,72	5920,32
424,84	5953,00
424,95	5990,15
425,07	5997,02
425,19	6100,74
425,31	6137,49
425,42	6164,92
425,54	6128,27
425,66	6112,59
425,78	6165,37
425,89	6211,07
426,01	6208,47
426,13	6216,02
426,25	6316,90
426,36	6318,52
426,48	6329,82
426,60	6280,83
426,72	6345,37
426,83	6387,47
426,95	6373,50
427,07	6449,10
427,19	6491,56
427,30	6506,00
427,42	6460,82
427,54	6531,87
427,66	6466,29
427,77	6558,65
427,89	6578,56
428,01	6645,88
428,12	6646,20
428,24	6700,93
428,36	6756,64
428,48	6756,57
428,59	6763,84
428,71	6858,01
428,83	6791,28
428,94	6843,10
429,06	6844,88
429,18	6912,27
429,30	6884,43
429,41	6947,73
429,53	6913,33
429,65	6971,95
429,76	6953,35
429,88	6932,59
430,00	6963,91
430,11	6986,26
430,23	7022,78
430,35	7067,23
430,47	7112,56
430,58	7073,53
430,70	7203,99
430,82	7089,71
430,93	7214,14
431,05	7138,80
431,17	7252,74
431,28	7259,29
431,40	7260,76
431,52	7233,46
431,63	7192,94
431,75	7248,71
431,87	7322,72
431,98	7328,80
432,10	7327,11
432,22	7349,71
432,33	7357,16
432,45	7320,08
432,56	7297,96
432,68	7409,21
432,80	7384,62
432,91	7403,81
433,03	7482,00
433,15	7466,72
433,26	7506,88
433,38	7524,46
433,50	7550,33
433,61	7526,20
433,73	7543,49
433,84	7550,54
433,96	7521,41
434,08	7547,49
434,19	7553,68
434,31	7565,97
434,43	7593,54
434,54	7624,43
434,66	7618,20
434,77	7524,43
434,89	7526,63
435,01	7676,93
435,12	7561,54
435,24	7665,20
435,35	7600,82
435,47	7755,57
435,59	7704,77
435,70	7656,12
435,82	7723,50
435,93	7706,80
436,05	7730,55
436,17	7726,28
436,28	7783,05
436,40	7727,80
436,51	7824,86
436,63	7876,29
436,74	7822,78
436,86	7805,44
436,98	7909,85
437,09	7877,01
437,21	7909,69
437,32	7888,02
437,44	7982,39
437,55	7887,82
437,67	8023,47
437,79	7953,49
437,90	7998,34
438,02	7943,57
438,13	7955,34
438,25	7962,21
438,36	8137,05
438,48	8066,77
438,59	8147,79
438,71	8085,84
438,83	8145,12
438,94	8201,95
439,06	8117,50
439,17	8146,86
439,29	8160,71
439,40	8214,16
439,52	8226,81
439,63	8250,49
439,75	8316,89
439,86	8299,49
439,98	8359,01
440,09	8367,10
440,21	8409,88
440,32	8456,14
440,44	8390,36
440,55	8376,05
440,67	8409,11
440,78	8448,18
440,90	8509,45
441,01	8446,99
441,13	8545,38
441,24	8598,51
441,36	8613,94
441,47	8678,14
441,59	8623,68
441,70	8744,63
441,82	8744,13
441,93	8774,35
442,05	8745,13
442,16	8799,99
442,28	8798,89
442,39	8851,32
442,51	8877,12
442,62	8955,31
442,74	8961,80
442,85	9038,00
442,97	8972,94
443,08	9042,45
443,20	9086,34
443,31	9135,47
443,43	9213,18
443,54	9291,53
443,66	9208,26
443,77	9282,17
443,88	9350,51
444,00	9307,76
444,11	9342,94
444,23	9457,11
444,34	9443,80
444,46	9560,13
444,57	9492,68
444,69	9580,88
444,80	9571,91
444,91	9636,85
445,03	9728,67
445,14	9801,41
445,26	9766,23
445,37	9733,44
445,49	9784,69
445,60	9939,24
445,71	9918,32
445,83	9998,74
445,94	9934,83
446,06	10046,81
446,17	10082,76
446,29	10181,61
446,40	10180,41
446,51	10213,09
446,63	10233,43
446,74	10286,55
446,86	10323,05
446,97	10391,32
447,08	10503,02
447,20	10512,31
447,31	10627,22
447,43	10628,24
447,54	10754,75
447,65	10701,80
447,77	10687,56
447,88	10839,29
448,00	10811,13
448,11	10799,83
448,22	10887,47
448,34	10959,73
448,45	11016,66
448,56	11079,10
448,68	11194,94
448,79	11241,08
448,90	11188,77
449,02	11349,85
449,13	11327,84
449,25	11403,63
449,36	11536,04
449,47	11486,52
449,59	11612,33
449,70	11681,50
449,81	11575,97
449,93	11733,82
450,04	11898,72
450,15	11850,72
450,27	12086,48
450,38	11951,98
450,49	12090,76
450,61	12195,34
450,72	12081,15
450,83	12155,23
450,95	12160,13
451,06	12304,20
451,17	12480,71
451,29	12518,20
451,40	12539,92
451,51	12515,85
451,63	12739,80
451,74	12515,31
451,85	12678,99
451,97	12929,56
452,08	13026,64
452,19	12941,78
452,31	12914,87
452,42	13016,29
452,53	13121,12
452,65	13144,76
452,76	13183,54
452,87	13128,22
452,98	13183,86
453,10	13306,43
453,21	13392,94
453,32	13400,82
453,44	13559,08
453,55	13652,32
453,66	13734,92
453,77	13727,03
453,89	13892,49
454,00	13873,51
454,11	13953,49
454,23	14068,38
454,34	14282,95
454,45	14042,66
454,56	14243,20
454,68	14219,08
454,79	14303,33
454,90	14390,90
455,01	14345,00
455,13	14503,64
455,24	14483,96
455,35	14625,36
455,46	14645,17
455,58	14750,14
455,69	14915,11
455,80	14780,04
455,91	14993,73
456,03	14948,80
456,14	15114,50
456,25	15052,58
456,36	15206,56
456,48	15371,84
456,59	15275,12
456,70	15366,85
456,81	15508,84
456,92	15558,42
457,04	15565,38
457,15	15592,52
457,26	15579,00
457,37	15720,51
457,49	15844,49
457,60	15795,11
457,71	15908,76
457,82	16170,33
457,93	16131,17
458,05	16253,90
458,16	16085,81
458,27	16292,68
458,38	16256,68
458,49	16751,36
458,61	16470,05
458,72	16531,57
458,83	16765,50
458,94	16590,30
459,05	16726,11
459,17	16720,28
459,28	16775,38
459,39	16848,64
459,50	16954,70
459,61	17078,35
459,72	17120,63
459,84	17242,12
459,95	17207,39
460,06	17221,85
460,17	17263,30
460,28	17433,51
460,39	17532,19
460,51	17509,28
460,62	17857,36
460,73	17911,62
460,84	17714,56
460,95	17871,48
461,06	17835,31
461,18	18058,17
461,29	18115,03
461,40	18069,92
461,51	18089,24
461,62	18088,79
461,73	18256,51
461,84	18441,71
461,96	18443,83
462,07	18561,98
462,18	18512,30
462,29	18879,59
462,40	18813,40
462,51	18910,35
462,62	18802,29
462,73	18682,06
462,85	18842,65
462,96	18987,16
463,07	19081,10
463,18	19337,50
463,29	19405,41
463,40	19362,34
463,51	19412,28
463,62	19621,92
463,73	19690,26
463,85	19478,76
463,96	19669,04
464,07	19809,85
464,18	19946,77
464,29	19828,27
464,40	19993,96
464,51	19941,22
464,62	20135,33
464,73	20139,02
464,84	19884,04
464,95	20102,91
465,06	20457,74
465,18	20394,36
465,29	20481,65
465,40	20159,02
465,51	20569,90
465,62	20490,67
465,73	20619,41
465,84	20676,99
465,95	20837,58
466,06	20877,53
466,17	20887,79
466,28	21051,54
466,39	21049,59
466,50	20957,89
466,61	21304,00
466,72	21436,93
466,83	21283,85
466,95	21562,69
467,06	21637,56
467,17	21313,29
467,28	21996,19
467,39	21772,56
467,50	21953,32
467,61	21873,26
467,72	21619,00
467,83	22130,81
467,94	21988,30
468,05	22289,47
468,16	22093,45
468,27	22476,40
468,38	22421,99
468,49	22338,94
468,60	22692,15
468,71	22639,40
468,82	22789,14
468,93	22599,36
469,04	23031,26
469,15	22958,04
469,26	23077,79
469,37	23006,31
469,48	23339,34
469,59	23455,16
469,70	23329,69
469,81	23553,44
469,92	23584,40
470,03	23600,17
470,14	23938,78
470,25	23952,00
470,36	23760,35
470,47	23928,37
470,58	23991,91
470,69	24231,50
470,80	24411,97
470,91	24349,03
471,02	24504,80
471,13	24424,19
471,24	24653,34
471,35	24507,54
471,46	24952,32
471,56	24920,81
471,67	25104,85
471,78	25002,37
471,89	25411,65
472,00	25280,89
472,11	25265,91
472,22	25490,29
472,33	25709,52
472,44	25551,40
472,55	25835,37
472,66	25826,15
472,77	26091,65
472,88	26028,15
472,99	26012,69
473,10	26276,89
473,21	26263,42
473,32	26605,52
473,42	26290,36
473,53	26615,28
473,64	26625,83
473,75	26809,01
473,86	26851,95
473,97	27211,15
474,08	27133,59
474,19	27214,27
474,30	27145,21
474,41	27210,22
474,52	27429,88
474,62	27373,88
474,73	27712,31
474,84	27645,04
474,95	28112,32
475,06	27568,36
475,17	27770,59
475,28	27603,25
475,39	27747,93
475,50	28239,87
475,60	28261,54
475,71	28630,39
475,82	28504,24
475,93	28706,48
476,04	28798,02
476,15	28922,65
476,26	29257,58
476,37	28827,45
476,47	29144,12
476,58	29064,41
476,69	29424,15
476,80	29545,66
476,91	29796,17
477,02	29802,36
477,13	30091,48
477,23	30113,85
477,34	30093,81
477,45	30259,63
477,56	30188,54
477,67	30356,38
477,78	30335,72
477,89	30731,67
477,99	30439,74
478,10	30906,31
478,21	31196,22
478,32	31468,94
478,43	31328,31
478,54	31462,63
478,64	31337,57
478,75	32378,67
478,86	31955,36
478,97	32086,05
479,08	32147,18
479,18	32087,25
479,29	32330,16
479,40	32413,77
479,51	32474,99
479,62	32141,46
479,72	32279,83
479,83	32352,46
479,94	32688,99
480,05	33005,28
480,16	33045,78
480,26	33363,05
480,37	33603,57
480,48	33541,33
480,59	33845,05
480,70	33933,64
480,80	33607,43
480,91	34300,82
481,02	34155,76
481,13	34233,31
481,24	34626,68
481,34	34584,74
481,45	34657,94
481,56	34600,02
481,67	34945,95
481,77	34995,33
481,88	35227,77
481,99	35054,76
482,10	35895,35
482,20	35413,62
482,31	35538,68
482,42	35516,63
482,53	35610,14
482,63	36209,99
482,74	36238,69
482,85	36543,20
482,96	36312,36
483,06	36427,16
483,17	36656,66
483,28	36705,48
483,39	36915,96
483,49	37152,38
483,60	37168,99
483,71	37177,51
483,81	37288,76
483,92	37417,14
484,03	38009,87
484,14	38077,82
484,24	38006,14
484,35	38181,21
484,46	38190,32
484,57	38274,09
484,67	38503,06
484,78	38460,84
484,89	38692,68
484,99	38893,44
485,10	39205,88
485,21	39258,15
485,31	39296,75
485,42	39234,13
485,53	39493,31
485,63	39525,27
485,74	39890,05
485,85	40095,22
485,96	39895,15
486,06	40134,83
486,17	40370,60
486,28	40345,52
486,38	40462,53
486,49	40688,24
486,60	40756,71
486,70	40794,97
486,81	40921,75
486,92	41372,72
487,02	41274,33
487,13	40742,36
487,24	41095,51
487,34	41102,67
487,45	41451,61
487,56	41533,71
487,66	41962,72
487,77	42301,49
487,87	42101,18
487,98	42407,77
488,09	42380,83
488,19	42765,54
488,30	42622,47
488,41	42601,55
488,51	42672,84
488,62	42686,95
488,73	43037,60
488,83	43260,13
488,94	43279,68
489,04	43518,99
489,15	43755,39
489,26	44000,40
489,36	44244,37
489,47	43838,51
489,58	43944,68
489,68	44271,33
489,79	44125,42
489,89	44613,29
490,00	44631,71
490,11	44484,71
490,21	44771,43
490,32	44981,96
490,42	45082,27
490,53	44997,64
490,64	44870,37
490,74	45006,12
490,85	45385,43
490,95	45437,95
491,06	45640,09
491,16	45805,37
491,27	45764,36
491,38	45828,92
491,48	45782,41
491,59	46198,38
491,69	46099,60
491,80	46446,06
491,90	46511,64
492,01	46627,93
492,12	46603,50
492,22	46673,89
492,33	46698,91
492,43	46685,85
492,54	46902,79
492,64	46872,44
492,75	46842,56
492,86	46952,69
492,96	47070,74
493,07	47202,80
493,17	47478,50
493,28	47712,37
493,38	47666,86
493,49	47622,57
493,59	47917,38
493,70	47917,14
493,80	48069,13
493,91	47929,34
494,01	48121,49
494,12	48109,20
494,22	48224,47
494,33	48124,75
494,43	48352,45
494,54	48630,02
494,64	48565,25
494,75	48551,15
494,86	48834,04
494,96	48842,99
495,07	48725,75
495,17	48838,44
495,28	48976,66
495,38	48666,92
495,49	48900,21
495,59	48899,84
495,69	49076,29
495,80	48945,83
495,90	49025,08
496,01	49387,06
496,11	49398,45
496,22	49533,97
496,32	49727,66
496,43	49621,29
496,53	49676,16
496,64	50018,84
496,74	49735,57
496,85	49840,63
496,95	49939,57
497,06	50186,73
497,16	50034,21
497,27	50401,73
497,37	50324,69
497,48	50212,10
497,58	50244,80
497,68	50090,50
497,79	50262,61
497,89	50490,54
498,00	50714,87
498,10	50740,50
498,21	50856,58
498,31	50526,58
498,42	50753,26
498,52	50770,57
498,62	50655,23
498,73	51285,66
498,83	51246,81
498,94	51094,43
499,04	51344,80
499,15	51153,05
499,25	51121,44
499,35	51528,07
499,46	51367,03
499,56	51521,58
499,67	51442,90
499,77	51445,11
499,87	51823,36
499,98	51587,28
500,08	51505,76
500,19	51523,80
500,29	51683,16
500,39	51712,70
500,50	52102,92
500,60	51878,21
500,71	51843,20
500,81	52043,40
500,91	51974,27
501,02	52108,37
501,12	52175,28
501,22	52216,48
501,33	52270,81
501,43	52200,46
501,54	52382,17
501,64	52336,27
501,74	52269,43
501,85	52404,72
501,95	52154,74
502,05	52787,47
502,16	52506,10
502,26	52689,94
502,37	52388,70
502,47	52476,83
502,57	52459,93
502,68	52565,99
502,78	52610,80
502,88	52663,52
502,99	52695,50
503,09	52827,29
503,19	52694,55
503,30	52928,12
503,40	53052,05
503,50	52872,03
503,61	53272,41
503,71	53057,02
503,81	53148,57
503,92	53076,03
504,02	53177,52
504,12	53084,14
504,23	53220,21
504,33	53257,06
504,43	53518,57
504,54	53390,89
504,64	52949,30
504,74	53272,09
504,84	53411,79
504,95	53709,10
505,05	53724,01
505,15	53642,41
505,26	53695,45
505,36	53633,89
505,46	53590,79
505,56	53964,91
505,67	53828,10
505,77	53764,67
505,87	53784,05
505,98	54105,70
506,08	54071,03
506,18	54027,19
506,28	54053,29
506,39	54192,04
506,49	54191,34
506,59	54169,81
506,70	53958,06
506,80	54388,40
506,90	54316,36
507,00	54368,31
507,11	54260,95
507,21	54393,39
507,31	54561,12
507,41	54418,03
507,52	54557,01
507,62	54597,89
507,72	54651,51
507,82	54701,14
507,93	54885,74
508,03	54918,33
508,13	54811,87
508,23	54840,82
508,34	54852,28
508,44	55042,48
508,54	54927,78
508,64	55138,98
508,74	54962,31
508,85	55122,26
508,95	55318,43
509,05	55133,22
509,15	55233,21
509,26	55312,51
509,36	55315,74
509,46	55488,64
509,56	55448,71
509,66	55431,88
509,77	55501,32
509,87	55560,48
509,97	55535,35
510,07	55566,11
510,17	55744,46
510,28	55674,58
510,38	55570,79
510,48	55835,87
510,58	55816,75
510,68	55920,61
510,78	55827,96
510,89	55837,70
510,99	55873,72
511,09	56061,08
511,19	56080,51
511,29	56047,93
511,39	56107,93
511,50	56183,38
511,60	56122,68
511,70	55990,51
511,80	55858,24
511,90	56058,30
512,00	56203,09
512,11	56476,89
512,21	56482,72
512,31	56447,01
512,41	56404,10
512,51	56543,67
512,61	56630,60
512,71	56659,08
512,82	56681,18
512,92	56236,96
513,02	56103,11
513,12	55932,16
513,22	56282,72
513,32	56508,46
513,42	56806,98
513,53	56908,27
513,63	56968,06
513,73	56946,89
513,83	57162,05
513,93	57185,57
514,03	57083,43
514,13	57058,36
514,23	57067,99
514,33	57296,23
514,44	57221,91
514,54	57230,92
514,64	57179,58
514,74	57094,45
514,84	57142,36
514,94	57368,28
515,04	57414,83
515,14	57536,05
515,24	57426,60
515,34	57413,56
515,44	57499,17
515,55	57335,03
515,65	57595,46
515,75	57536,07
515,85	57615,86
515,95	57662,44
516,05	57630,15
516,15	57637,42
516,25	57814,07
516,35	57811,70
516,45	57759,20
516,55	57745,92
516,65	57830,77
516,75	57936,94
516,85	58128,91
516,95	57871,52
517,05	57907,29
517,16	58064,60
517,26	57998,23
517,36	58206,97
517,46	58240,98
517,56	58284,84
517,66	58272,75
517,76	58324,61
517,86	58296,28
517,96	58295,42
518,06	58138,88
518,16	58442,21
518,26	58561,65
518,36	58593,65
518,46	58484,20
518,56	58411,35
518,66	58619,75
518,76	58745,46
518,86	58762,93
518,96	58666,53
519,06	58713,06
519,16	58675,77
519,26	58695,45
519,36	58705,12
519,46	58916,21
519,56	59018,29
519,66	58934,36
519,76	58895,65
519,86	59046,94
519,96	59060,84
520,06	59125,32
520,16	59034,40
520,26	59208,91
520,36	59242,89
520,46	59085,79
520,56	59167,71
520,66	59335,25
520,76	59331,12
520,86	59257,38
520,96	59376,68
521,06	59393,04
521,16	59332,63
521,26	59486,59
521,35	59523,54
521,45	59483,41
521,55	59480,83
521,65	59766,61
521,75	59579,65
521,85	59512,85
521,95	59504,11
522,05	59660,01
522,15	59693,01
522,25	59568,08
522,35	59662,70
522,45	58983,29
522,55	59725,89
522,65	59900,19
522,75	59840,17
522,85	59889,43
522,94	59724,67
523,04	59845,05
523,14	59815,51
523,24	59747,92
523,34	59826,83
523,44	59879,42
523,54	59977,63
523,64	60150,44
523,74	60172,38
523,84	60063,87
523,94	60173,04
524,03	60061,65
524,13	60081,29
524,23	60179,62
524,33	60216,63
524,43	60379,95
524,53	60532,69
524,63	60473,46
524,73	60511,40
524,83	60391,95
524,92	60416,15
525,02	60476,33
525,12	60652,10
525,22	60531,33
525,32	60601,55
525,42	60679,08
525,52	60615,78
525,61	60748,82
525,71	60827,58
525,81	60852,77
525,91	61076,68
526,01	60928,54
526,11	60839,94
526,21	60934,24
526,30	60871,57
526,40	61041,24
526,50	61104,59
526,60	61146,91
526,70	60974,04
526,80	61305,87
526,89	61164,36
526,99	61128,99
527,09	61239,05
527,19	61120,00
527,29	61185,01
527,39	61255,99
527,48	61321,17
527,58	61353,37
527,68	61465,89
527,78	61401,10
527,88	61454,38
527,97	61525,14
528,07	61465,98
528,17	61506,22
528,27	61621,70
528,37	61412,60
528,46	61614,79
528,56	61616,41
528,66	61639,03
528,76	61726,49
528,86	61682,24
528,95	61621,25
529,05	61740,84
529,15	61810,24
529,25	61783,32
529,35	61714,49
529,44	61860,81
529,54	61796,30
529,64	61858,83
529,74	61917,69
529,83	61963,75
529,93	61905,65
530,03	62049,24
530,13	62068,49
530,22	61891,64
530,32	62016,27
530,42	61947,09
530,52	61971,00
530,61	62186,48
530,71	62036,83
530,81	62171,22
530,91	62218,66
531,00	62342,23
531,10	62247,72
531,20	62260,53
531,30	62059,77
531,39	62288,19
531,49	62269,71
531,59	62290,20
531,69	62364,71
531,78	62264,46
531,88	62456,03
531,98	62378,47
532,07	62399,04
532,17	62457,82
532,27	62194,79
532,37	62533,72
532,46	62415,22
532,56	62526,29
532,66	62502,24
532,75	62625,16
532,85	62598,51
532,95	62584,00
533,04	62578,08
533,14	62649,61
533,24	62688,11
533,34	62698,85
533,43	62799,77
533,53	62640,36
533,63	62759,25
533,72	62781,20
533,82	62725,88
533,92	62919,29
534,01	62717,49
534,11	62824,34
534,21	62926,44
534,30	62895,63
534,40	62849,87
534,50	62720,70
534,59	62813,06
534,69	63059,99
534,79	63121,35
534,88	62972,94
534,98	62996,65
535,08	62778,85
535,17	62854,28
535,27	63212,46
535,36	63152,69
535,46	63123,70
535,56	63162,05
535,65	62980,08
535,75	63113,01
535,85	63009,69
535,94	63032,58
536,04	63183,06
536,14	63169,46
536,23	63308,08
536,33	63239,92
536,42	63187,74
536,52	63275,78
536,62	63367,60
536,71	63195,13
536,81	63285,88
536,90	63351,92
537,00	63383,80
537,10	63320,73
537,19	63335,76
537,29	63480,05
537,38	63434,92
537,48	63429,29
537,58	63424,12
537,67	63557,40
537,77	63523,46
537,86	63549,88
537,96	63358,20
538,06	63458,35
538,15	63516,14
538,25	63504,97
538,34	63678,78
538,44	63518,26
538,53	63543,19
538,63	63718,48
538,73	63723,09
538,82	63644,02
538,92	63604,32
539,01	63728,13
539,11	63665,40
539,20	63755,11
539,30	63774,26
539,39	63697,08
539,49	63867,99
539,59	63666,76
539,68	63921,48
539,78	63881,82
539,87	63843,61
539,97	63939,61
540,06	63804,83
540,16	64010,29
540,25	63819,56
540,35	63934,82
540,44	63852,02
540,54	63927,61
540,63	63842,19
540,73	64163,26
540,82	63811,70
540,92	63969,21
541,01	63916,29
541,11	64121,25
541,20	64046,75
541,30	63983,31
541,39	64115,85
541,49	63962,27
541,58	64011,42
541,68	64150,97
541,77	64092,69
541,87	64101,86
541,96	64183,85
542,06	64150,36
542,15	64169,18
542,25	64108,82
542,34	64278,65
542,44	64104,62
542,53	64263,15
542,63	64165,84
542,72	64256,91
542,82	64161,09
542,91	64144,55
543,01	64322,11
543,10	64228,53
543,20	64233,36
543,29	64237,54
543,38	64326,17
543,48	64275,44
543,57	64348,64
543,67	64329,11
543,76	64340,55
543,86	64376,52
543,95	64231,53
544,05	64175,98
544,14	64155,24
544,23	64370,94
544,33	64294,90
544,42	64277,93
544,52	64424,23
544,61	64458,40
544,71	64418,53
544,80	64386,53
544,89	64455,50
544,99	64476,50
545,08	64489,47
545,18	64591,16
545,27	64334,58
545,36	64535,66
545,46	64425,00
545,55	64510,10
545,65	64424,77
545,74	64419,80
545,84	64510,46
545,93	64394,10
546,02	64628,06
546,12	64583,95
546,21	64562,21
546,30	64644,92
546,40	64544,16
546,49	64560,86
546,59	64578,98
546,68	64665,17
546,77	64525,24
546,87	64590,17
546,96	64622,80
547,05	64585,51
547,15	64530,30
547,24	64636,33
547,34	64559,77
547,43	64655,50
547,52	64681,64
547,62	64631,54
547,71	64677,76
547,80	64634,59
547,90	64641,28
547,99	64709,30
548,08	64572,97
548,18	64578,48
548,27	64710,32
548,36	64748,56
548,46	64594,91
548,55	64717,01
548,64	64710,46
548,74	64648,94
548,83	64722,80
548,92	64769,51
549,02	64662,62
549,11	64750,43
549,20	64731,54
549,30	64709,87
549,39	64701,28
549,48	64756,22
549,58	64675,38
549,67	64731,59
549,76	64648,54
549,85	64834,39
549,95	64749,28
550,04	64815,09
550,13	64784,47
550,23	64759,11
550,32	64704,20
550,41	64864,96
550,50	64647,52
550,60	64789,57
550,69	64815,63
550,78	64763,90
550,88	64789,10
550,97	64669,12
551,06	64890,38
551,15	64620,49
551,25	64861,35
551,34	64716,47
551,43	64706,21
551,52	64736,33
551,62	64835,79
551,71	64846,43
551,80	64700,99
551,89	64770,57
551,99	64791,90
552,08	64753,17
552,17	64782,77
552,26	64822,50
552,36	64694,82
552,45	64779,72
552,54	64788,44
552,63	64778,52
552,73	64781,91
552,82	64773,91
552,91	64686,01
553,00	64762,34
553,10	64872,76
553,19	64859,29
553,28	64821,84
553,37	64721,37
553,46	64773,60
553,56	64783,27
553,65	64745,66
553,74	64812,96
553,83	64718,25
553,92	64884,28
554,02	64781,42
554,11	64757,53
554,20	64731,31
554,29	64825,23
554,38	64681,51
554,48	64693,98
554,57	64774,41
554,66	64857,46
554,75	64723,68
554,84	64760,53
554,94	64765,94
555,03	64774,00
555,12	64708,24
555,21	64683,93
555,30	64749,51
555,39	64739,63
555,49	64828,31
555,58	64702,71
555,67	64654,10
555,76	64805,37
555,85	64655,99
555,94	64702,84
556,03	64635,72
556,13	64798,32
556,22	64679,02
556,31	64736,60
556,40	64668,08
556,49	64736,17
556,58	64645,83
556,67	64745,80
556,77	64729,62
556,86	64779,63
556,95	64622,55
557,04	64707,16
557,13	64605,56
557,22	64737,96
557,31	64599,23
557,40	64644,81
557,50	64581,17
557,59	64571,43
557,68	64682,30
557,77	64637,83
557,86	64679,32
557,95	64642,93
558,04	64591,34
558,13	64598,12
558,22	64465,56
558,31	64634,32
558,41	64529,72
558,50	64510,19
558,59	64559,95
558,68	64487,68
558,77	64610,01
558,86	64492,45
558,95	64562,53
559,04	64528,40
559,13	64442,67
559,22	64585,33
559,31	64512,20
559,40	64472,86
559,49	64548,07
559,59	64341,88
559,68	64507,21
559,77	64507,39
559,86	64363,23
559,95	64383,35
560,04	64440,18
560,13	64415,30
560,22	64371,12
560,31	64260,25
560,40	64301,36
560,49	64417,76
560,58	64234,09
560,67	64289,25
560,76	64317,31
560,85	64280,64
560,94	64260,50
561,03	64309,65
561,12	64278,58
561,21	64242,63
561,30	64169,68
561,39	64319,82
561,48	64213,54
561,57	64148,57
561,66	64265,59
561,75	64188,14
561,84	64089,82
561,93	64059,54
562,02	64159,22
562,11	64178,06
562,20	64046,72
562,29	64076,37
562,38	64086,36
562,47	64051,31
562,56	63964,49
562,65	63987,38
562,74	64024,96
562,83	64025,82
562,92	64073,23
563,01	64053,12
563,10	64091,65
563,19	63985,17
563,28	63900,40
563,37	63864,54
563,46	64012,83
563,55	63762,50
563,64	63812,29
563,73	63838,07
563,82	63773,76
563,91	63840,17
564,00	63743,43
564,09	63789,94
564,18	63767,66
564,27	63841,21
564,35	63749,13
564,44	63673,33
564,53	63770,19
564,62	63596,16
564,71	63801,40
564,80	63597,90
564,89	63509,83
564,98	63618,64
565,07	63518,94
565,16	63531,66
565,25	63460,43
565,34	63440,39
565,43	63469,18
565,51	63403,80
565,60	63487,14
565,69	63410,38
565,78	63480,39
565,87	63511,53
565,96	63436,09
566,05	63407,80
566,14	63267,17
566,23	63353,25
566,32	63345,36
566,40	63269,66
566,49	63251,15
566,58	63206,81
566,67	63289,57
566,76	63228,80
566,85	63216,37
566,94	63149,77
567,03	63142,97
567,11	63128,31
567,20	63126,36
567,29	63102,68
567,38	62943,07
567,47	63130,59
567,56	63064,58
567,65	62972,24
567,73	62952,97
567,82	62909,98
567,91	62893,89
568,00	62911,52
568,09	62870,26
568,18	62884,61
568,27	62871,45
568,35	62771,48
568,44	62974,98
568,53	62663,21
568,62	62721,74
568,71	62703,93
568,80	62699,03
568,88	62598,11
568,97	62744,07
569,06	62614,99
569,15	62619,14
569,24	62527,55
569,32	62599,17
569,41	62455,31
569,50	62407,96
569,59	62442,67
569,68	62509,81
569,76	62569,95
569,85	62439,67
569,94	62466,67
570,03	62308,51
570,12	62356,28
570,20	62515,01
570,29	62346,68
570,38	62106,32
570,47	62310,34
570,56	62334,54
570,64	62300,46
570,73	62133,91
570,82	62170,12
570,91	62176,47
570,99	62168,26
571,08	62060,70
571,17	62034,39
571,26	62013,49
571,34	61991,43
571,43	62058,10
571,52	62072,90
571,61	61931,68
571,69	61939,52
571,78	62007,79
571,87	61906,08
571,96	61869,45
572,04	61902,39
572,13	61812,32
572,22	61805,81
572,31	61802,78
572,39	61855,30
572,48	61781,09
572,57	61676,03
572,66	61725,20
572,74	61806,67
572,83	61608,50
572,92	61687,96
573,00	61571,35
573,09	61443,79
573,18	61545,07
573,27	61509,07
573,35	61581,66
573,44	61481,39
573,53	61390,52
573,61	61338,41
573,70	61424,98
573,79	61424,42
573,87	61439,36
573,96	61335,27
574,05	61366,57
574,14	61241,55
574,22	61335,20
574,31	61184,27
574,40	61353,46
574,48	61140,63
574,57	61272,78
574,66	61255,18
574,74	61107,18
574,83	61061,08
574,92	61110,46
575,00	60977,31
575,09	60933,22
575,18	61006,71
575,26	61059,64
575,35	60886,17
575,43	60845,47
575,52	60978,96
575,61	60864,57
575,69	60848,23
575,78	60813,54
575,87	60732,98
575,95	60824,32
576,04	60711,58
576,13	60711,13
576,21	60672,69
576,30	60747,44
576,38	60664,76
576,47	60635,13
576,56	60672,64
576,64	60488,22
576,73	60523,02
576,82	60563,49
576,90	60559,09
576,99	60576,26
577,07	60420,45
577,16	60286,32
577,25	60522,36
577,33	60292,74
577,42	60338,05
577,50	60229,49
577,59	60399,50
577,68	60122,44
577,76	60272,79
577,85	60190,17
577,93	60172,36
578,02	60196,59
578,10	60040,12
578,19	60200,56
578,28	60039,37
578,36	60155,34
578,45	59975,26
578,53	59968,07
578,62	60137,13
578,70	60002,20
578,79	59941,59
578,88	59966,29
578,96	59953,29
579,05	59852,30
579,13	59797,03
579,22	59692,78
579,30	59838,38
579,39	59686,16
579,47	59746,36
579,56	59728,64
579,64	59668,71
579,73	59595,16
579,82	59624,56
579,90	59660,26
579,99	59718,11
580,07	59496,65
580,16	59577,05
580,24	59577,05
580,33	59434,98
580,41	59449,74
580,50	59482,03
580,58	59276,93
580,67	59477,87
580,75	59437,01
580,84	59345,65
580,92	59269,18
581,01	59337,04
581,09	59198,99
581,18	59383,70
581,26	59303,23
581,35	59118,72
581,43	59161,68
581,52	59286,89
581,60	59134,49
581,69	59174,20
581,77	59117,54
581,86	59085,88
581,94	59094,65
582,02	59040,64
582,11	59081,95
582,19	58968,46
582,28	58948,17
582,36	58977,00
582,45	58932,15
582,53	59036,10
582,62	58760,29
582,70	58900,21
582,79	58837,21
582,87	58739,61
582,96	58837,44
583,04	58882,93
583,12	58769,28
583,21	58693,37
583,29	58682,82
583,38	58803,52
583,46	58677,21
583,55	58604,29
583,63	58673,49
583,71	58653,35
583,80	58621,76
583,88	58469,51
583,97	58625,85
584,05	58472,41
584,13	58477,94
584,22	58626,23
584,30	58541,42
584,39	58451,16
584,47	58390,26
584,55	58501,51
584,64	58456,29
584,72	58414,78
584,81	58322,26
584,89	58263,58
584,97	58189,88
585,06	58259,19
585,14	58269,34
585,23	58120,82
585,31	58292,84
585,39	58115,22
585,48	58226,11
585,56	58204,98
585,64	58134,06
585,73	58254,65
585,81	58011,22
585,90	58043,24
585,98	57965,91
586,06	58268,73
586,15	58200,07
586,23	57997,21
586,31	58071,67
586,40	57864,20
586,48	58005,41
586,56	57862,07
586,65	57910,43
586,73	57982,23
586,81	57928,85
586,90	57851,81
586,98	57954,11
587,06	57870,00
587,15	57777,67
587,23	57894,30
587,31	57918,57
587,40	57772,97
587,48	57849,42
587,56	57719,59
587,65	57783,25
587,73	57935,02
587,81	57724,72
587,90	57708,49
587,98	57687,86
588,06	57621,74
588,14	57530,04
588,23	57537,67
588,31	57662,87
588,39	57559,32
588,48	57690,94
588,56	57680,11
588,64	57484,68
588,72	57633,85
588,81	57585,83
588,89	57556,23
588,97	57534,76
589,06	57419,08
589,14	57439,17
589,22	57578,44
589,30	57460,91
589,39	57513,54
589,47	57290,11
589,55	57415,89
589,63	57401,25
589,72	57424,19
589,80	57288,10
589,88	57371,64
589,96	57606,80
590,05	57454,99
590,13	57535,66
590,21	57426,67
590,29	57311,46
590,38	57339,17
590,46	57189,10
590,54	57436,18
590,62	57461,18
590,71	57339,19
590,79	57022,68
590,87	57363,08
590,95	57111,20
591,03	57189,98
591,12	57164,35
591,20	57175,69
591,28	57292,62
591,36	57256,64
591,44	57153,46
591,53	57353,05
591,61	57150,52
591,69	57161,07
591,77	57251,81
591,85	57203,85
591,94	57205,52
592,02	57090,61
592,10	57117,10
592,18	57220,17
592,26	57185,28
592,34	57205,89
592,43	57103,63
592,51	57032,92
592,59	57087,67
592,67	57286,15
592,75	57309,48
592,84	57043,36
592,92	57089,93
593,00	56992,33
593,08	57229,25
593,16	57072,31
593,24	57088,35
593,32	57106,54
593,41	57093,41
593,49	57016,60
593,57	57050,95
593,65	57146,25
593,73	57129,53
593,81	57114,36
593,89	56976,56
593,98	57110,09
594,06	57060,83
594,14	57166,32
594,22	57119,99
594,30	56956,29
594,38	57169,89
594,46	57318,67
594,54	57261,95
594,62	57030,14
594,71	57283,13
594,79	57316,66
594,87	57051,90
594,95	57169,86
595,03	57246,77
595,11	57086,36
595,19	57236,57
595,27	57223,35
595,35	57200,37
595,43	57331,60
595,52	57163,76
595,60	57251,85
595,68	57126,57
595,76	57199,69
595,84	57112,96
595,92	57128,60
596,00	57224,21
596,08	57248,69
596,16	57251,35
596,24	57177,93
596,32	57109,07
596,40	57063,56
596,48	57116,76
596,56	57231,85
596,64	57141,53
596,73	57114,52
596,81	57332,10
596,89	57143,76
596,97	57262,20
597,05	57144,46
597,13	57235,74
597,21	57230,11
597,29	57189,28
597,37	57262,56
597,45	57091,52
597,53	57358,04
597,61	57141,07
597,69	57264,66
597,77	57327,44
597,85	57177,10
597,93	57189,66
598,01	57197,03
598,09	57101,05
598,17	57257,52
598,25	57074,79
598,33	57231,13
598,41	57281,45
598,49	57082,82
598,57	57072,26
598,65	57150,29
598,73	57145,98
598,81	57138,45
598,89	57100,92
598,97	57116,71
599,05	57182,68
599,13	57051,00
599,21	57175,54
599,29	57174,77
599,37	57339,60
599,45	57257,48
599,53	57053,80
599,61	57056,58
599,69	57185,12
599,77	57057,32
599,85	57101,28
599,93	57219,85
600,00	57155,47
600,08	57066,91
600,16	57179,11
600,24	57158,68
600,32	57223,53
600,40	56974,89
600,48	57224,28
600,56	57074,97
600,64	57102,14
600,72	57174,34
600,80	57116,10
600,88	57146,41
600,96	57195,35
601,04	56968,51
601,12	57056,99
601,19	56926,30
601,27	57094,61
601,35	57109,10
601,43	57136,83
601,51	57177,93
601,59	57031,95
601,67	57190,50
601,75	56940,54
601,83	57068,19
601,91	57008,99
601,98	57035,31
602,06	56960,85
602,14	57105,05
602,22	57135,49
602,30	57119,42
602,38	57131,13
602,46	57154,54
602,54	57018,64
602,61	57081,75
602,69	56983,90
602,77	57040,38
602,85	57211,02
602,93	57026,98
603,01	56831,61
603,09	57117,91
603,17	57021,71
603,24	57143,15
603,32	57043,61
603,40	56940,63
603,48	57143,24
603,56	56961,30
603,64	56976,97
603,71	56969,73
603,79	57125,59
603,87	57071,36
603,95	57039,90
604,03	56919,52
604,11	57048,19
604,18	57019,86
604,26	57007,77
604,34	57173,48
604,42	57022,34
604,50	57107,24
604,57	57067,58
604,65	56935,23
604,73	57082,75
604,81	57092,94
604,89	56975,32
604,96	57037,23
605,04	57016,85
605,12	56977,94
605,20	57015,99
605,28	57016,63
605,35	56995,79
605,43	57154,07
605,51	56955,97
605,59	56928,29
605,67	56975,13
605,74	56980,51
605,82	57071,22
605,90	57015,04
605,98	57000,35
606,05	56964,83
606,13	56878,71
606,21	57016,74
606,29	56998,50
606,36	57041,96
606,44	56880,83
606,52	56916,02
606,60	56972,76
606,67	57021,08
606,75	56880,47
606,83	56943,86
606,91	56946,71
606,98	56939,54
607,06	56837,83
607,14	56904,58
607,22	56928,72
607,29	56901,17
607,37	56884,56
607,45	56805,69
607,52	56803,37
607,60	56876,79
607,68	56921,15
607,76	56857,28
607,83	56868,52
607,91	56895,61
607,99	56879,82
608,06	56890,91
608,14	56763,32
608,22	56916,51
608,30	56848,45
608,37	56879,57
608,45	56715,66
608,53	56802,53
608,60	56808,88
608,68	56619,32
608,76	56897,28
608,83	56932,45
608,91	56824,92
608,99	56797,40
609,06	56790,08
609,14	56797,67
609,22	57017,78
609,29	56897,53
609,37	56865,33
609,45	56787,09
609,52	56951,50
609,60	56747,91
609,68	56737,90
609,75	56806,53
609,83	56832,86
609,91	56820,52
609,98	56826,37
610,06	56746,82
610,13	56749,58
610,21	56824,77
610,29	56702,87
610,36	56733,15
610,44	56794,03
610,52	56814,71
610,59	56769,78
610,67	56709,85
610,74	56648,95
610,82	56708,02
610,90	56690,28
610,97	56790,30
611,05	56634,49
611,13	56693,13
611,20	56672,91
611,28	56776,61
611,35	56809,81
611,43	56689,97
611,51	56787,30
611,58	56527,60
611,66	56724,61
611,73	56536,23
611,81	56598,94
611,88	56470,61
611,96	56758,35
612,04	56731,10
612,11	56749,99
612,19	56635,46
612,26	56541,25
612,34	56684,20
612,41	56800,25
612,49	56687,41
612,57	56484,82
612,64	56730,53
612,72	56554,04
612,79	56684,81
612,87	56652,02
612,94	56578,13
613,02	56617,99
613,09	56661,22
613,17	56523,01
613,24	56597,29
613,32	56591,05
613,40	56511,96
613,47	56618,33
613,55	56354,72
613,62	56590,67
613,70	56545,72
613,77	56537,04
613,85	56597,27
613,92	56517,16
614,00	56495,87
614,07	56468,01
614,15	56589,04
614,22	56476,26
614,30	56415,51
614,37	56636,77
614,45	56466,61
614,52	56469,05
614,60	56419,74
614,67	56515,49
614,75	56387,58
614,82	56446,70
614,90	56525,90
614,97	56486,85
615,05	56434,15
615,12	56330,65
615,20	56486,33
615,27	56279,58
615,34	56490,45
615,42	56444,50
615,49	56419,28
615,57	56397,55
615,64	56346,97
615,72	56353,18
615,79	56405,75
615,87	56200,74
615,94	56427,99
616,02	56312,53
616,09	56048,40
616,16	56118,39
616,24	56234,14
616,31	55976,79
616,39	56205,93
616,46	56146,73
616,54	56284,51
616,61	56303,13
616,68	56171,68
616,76	56060,92
616,83	56109,94
616,91	55998,39
616,98	56107,50
617,06	56248,37
617,13	56066,82
617,20	56092,72
617,28	55955,12
617,35	56008,58
617,43	56107,34
617,50	56021,69
617,57	55942,69
>>>>>End Processed Spectral Data<<<<<
