SpectraSuite Datei
++++++++++++++++++++++++++++++++++++
Datum: Mon Jan 12 07:50:35 CET 2004
Benutzer: Student
Dark-Spektrum vorhanden: Nein
Referenz-Spektrum vorhanden: Nein
Zahl der probierten Teilspektren: 1
Spektrometer: USB2+H04734
Integrationszeit (usec): 17000 (USB2+H04734)
Spektren Durchschnitt berechnet: 100 (USB2+H04734)
Boxcar Glättung: 0 (USB2+H04734)
Dunkelstromkorrektur: Nein (USB2+H04734)
Puls/Lampe aktiviert: Nein (USB2+H04734)
Correct for Detector Non-linearity: Nein (USB2+H04734)
Streulichtkorrektur: Nein (USB2+H04734)
Anzahl Pixel in verarbeitetem Spektrum: 2048
>>>>>Begin Processed Spectral Data<<<<<
418,45	1108,49
418,57	1108,49
418,69	1108,49
418,80	1032,15
418,92	1016,49
419,04	1004,13
419,16	992,70
419,28	988,11
419,40	975,93
419,52	975,39
419,64	981,74
419,75	981,08
419,87	982,17
419,99	987,09
420,11	998,48
420,23	1010,48
420,35	1012,43
420,47	1027,02
420,58	1033,03
420,70	1043,52
420,82	1050,87
420,94	1064,76
421,06	1073,35
421,18	1082,43
421,29	2438,40
421,41	5990,51
421,53	6081,90
421,65	6137,99
421,77	6176,40
421,89	6257,69
422,00	6235,16
422,12	6288,15
422,24	6281,85
422,36	6340,92
422,48	6319,81
422,59	6312,81
422,71	6399,22
422,83	6412,10
422,95	6397,01
423,07	6376,78
423,18	6461,46
423,30	6486,88
423,42	6430,05
423,54	6457,53
423,66	6552,23
423,77	6558,06
423,89	6558,18
424,01	6600,62
424,13	6587,04
424,25	6625,11
424,36	6670,81
424,48	6703,94
424,60	6634,47
424,72	6648,39
424,84	6699,46
424,95	6709,16
425,07	6744,12
425,19	6860,63
425,31	6902,01
425,42	6933,17
425,54	6907,05
425,66	6867,84
425,78	6923,89
425,89	6994,71
426,01	6987,34
426,13	7005,06
426,25	7067,54
426,36	7094,16
426,48	7132,67
426,60	7050,87
426,72	7150,64
426,83	7189,39
426,95	7155,79
427,07	7262,14
427,19	7313,05
427,30	7320,26
427,42	7268,10
427,54	7351,38
427,66	7270,02
427,77	7365,66
427,89	7392,35
428,01	7480,57
428,12	7449,50
428,24	7517,84
428,36	7582,81
428,48	7550,99
428,59	7576,89
428,71	7670,31
428,83	7590,67
428,94	7658,65
429,06	7679,50
429,18	7734,96
429,30	7694,26
429,41	7770,39
429,53	7709,90
429,65	7780,59
429,76	7790,51
429,88	7738,96
430,00	7796,22
430,11	7802,71
430,23	7846,82
430,35	7913,65
430,47	7954,23
430,58	7898,84
430,70	8057,73
430,82	7904,33
430,93	8036,53
431,05	7979,88
431,17	8086,05
431,28	8052,90
431,40	8080,31
431,52	8048,96
431,63	8012,78
431,75	8074,86
431,87	8152,12
431,98	8124,96
432,10	8163,76
432,22	8190,02
432,33	8206,95
432,45	8155,27
432,56	8108,69
432,68	8212,01
432,80	8168,73
432,91	8238,38
433,03	8315,46
433,15	8298,20
433,26	8345,43
433,38	8366,49
433,50	8392,37
433,61	8333,20
433,73	8353,72
433,84	8364,73
433,96	8331,80
434,08	8372,21
434,19	8353,27
434,31	8372,48
434,43	8400,48
434,54	8425,00
434,66	8405,32
434,77	8350,15
434,89	8323,83
435,01	8490,62
435,12	8360,59
435,24	8439,17
435,35	8403,42
435,47	8546,10
435,59	8479,62
435,70	8457,81
435,82	8518,62
435,93	8459,42
436,05	8509,02
436,17	8503,87
436,28	8600,93
436,40	8515,48
436,51	8626,91
436,63	8650,55
436,74	8612,68
436,86	8592,81
436,98	8697,22
437,09	8653,60
437,21	8729,10
437,32	8652,95
437,44	8770,16
437,55	8659,48
437,67	8791,09
437,79	8701,42
437,90	8764,54
438,02	8711,68
438,13	8705,58
438,25	8717,42
438,36	8892,90
438,48	8829,03
438,59	8910,75
438,71	8869,91
438,83	8905,19
438,94	8970,36
439,06	8879,63
439,17	8903,11
439,29	8922,75
439,40	8968,80
439,52	8989,50
439,63	9000,44
439,75	9050,59
439,86	9070,47
439,98	9128,03
440,09	9116,82
440,21	9196,57
440,32	9202,92
440,44	9131,65
440,55	9105,70
440,67	9120,71
440,78	9187,89
440,90	9244,23
441,01	9164,78
441,13	9266,36
441,24	9332,50
441,36	9356,66
441,47	9398,71
441,59	9330,31
441,70	9468,84
441,82	9460,61
441,93	9478,71
442,05	9445,08
442,16	9484,52
442,28	9502,33
442,39	9559,05
442,51	9546,80
442,62	9645,85
442,74	9691,27
442,85	9725,24
442,97	9640,38
443,08	9735,36
443,20	9782,39
443,31	9827,74
443,43	9884,44
443,54	9993,21
443,66	9891,06
443,77	9936,28
443,88	10026,29
444,00	10025,05
444,11	10002,00
444,23	10121,93
444,34	10100,10
444,46	10219,71
444,57	10124,68
444,69	10220,32
444,80	10210,65
444,91	10274,92
445,03	10390,55
445,14	10450,46
445,26	10426,71
445,37	10358,12
445,49	10423,39
445,60	10549,26
445,71	10570,25
445,83	10627,83
445,94	10532,63
446,06	10657,91
446,17	10681,10
446,29	10768,96
446,40	10780,73
446,51	10812,37
446,63	10826,38
446,74	10879,56
446,86	10892,66
446,97	10959,28
447,08	11090,38
447,20	11077,79
447,31	11180,14
447,43	11174,62
447,54	11296,90
447,65	11239,07
447,77	11251,37
447,88	11398,39
448,00	11359,93
448,11	11337,44
448,22	11405,82
448,34	11486,14
448,45	11521,80
448,56	11577,98
448,68	11683,78
448,79	11722,47
448,90	11657,98
449,02	11822,81
449,13	11774,27
449,25	11853,88
449,36	11965,49
449,47	11951,78
449,59	12044,95
449,70	12124,63
449,81	12007,71
449,93	12123,30
450,04	12313,80
450,15	12281,19
450,27	12484,64
450,38	12347,31
450,49	12473,19
450,61	12572,93
450,72	12444,26
450,83	12524,85
450,95	12542,56
451,06	12673,05
451,17	12828,88
451,29	12822,96
451,40	12889,65
451,51	12812,30
451,63	13022,01
451,74	12823,35
451,85	12932,13
451,97	13186,18
452,08	13287,31
452,19	13189,10
452,31	13176,44
452,42	13255,95
452,53	13336,33
452,65	13344,53
452,76	13406,29
452,87	13307,74
452,98	13316,98
453,10	13486,02
453,21	13527,17
453,32	13544,25
453,44	13694,33
453,55	13776,81
453,66	13817,65
453,77	13818,71
453,89	13924,42
454,00	13948,90
454,11	14013,71
454,23	14137,89
454,34	14312,03
454,45	14051,95
454,56	14258,59
454,68	14201,23
454,79	14265,03
454,90	14332,91
455,01	14260,98
455,13	14435,69
455,24	14418,83
455,35	14514,58
455,46	14529,54
455,58	14580,66
455,69	14764,02
455,80	14625,54
455,91	14816,99
456,03	14771,07
456,14	14919,47
456,25	14818,84
456,36	14925,19
456,48	15105,39
456,59	14977,84
456,70	15093,23
456,81	15200,84
456,92	15216,05
457,04	15215,01
457,15	15223,51
457,26	15146,52
457,37	15284,93
457,49	15375,57
457,60	15286,40
457,71	15423,41
457,82	15661,74
457,93	15603,00
458,05	15723,86
458,16	15518,53
458,27	15697,78
458,38	15631,48
458,49	16102,45
458,61	15810,68
458,72	15867,79
458,83	16031,53
458,94	15892,40
459,05	16014,47
459,17	15994,72
459,28	15998,11
459,39	16022,20
459,50	16091,06
459,61	16192,37
459,72	16218,94
459,84	16358,12
459,95	16261,47
460,06	16295,64
460,17	16270,51
460,28	16419,50
460,39	16512,09
460,51	16494,93
460,62	16784,89
460,73	16808,03
460,84	16643,34
460,95	16734,97
461,06	16680,89
461,18	16833,05
461,29	16904,91
461,40	16831,74
461,51	16811,65
461,62	16764,28
461,73	16957,97
461,84	17070,42
461,96	17053,50
462,07	17123,19
462,18	17090,74
462,29	17394,21
462,40	17335,75
462,51	17381,71
462,62	17250,42
462,73	17117,70
462,85	17245,58
462,96	17338,64
463,07	17402,32
463,18	17591,54
463,29	17641,39
463,40	17578,50
463,51	17578,63
463,62	17779,92
463,73	17774,83
463,85	17593,41
463,96	17715,67
464,07	17846,74
464,18	17911,14
464,29	17785,61
464,40	17919,33
464,51	17877,07
464,62	17985,27
464,73	17951,78
464,84	17711,94
464,95	17870,87
465,06	18210,19
465,18	18123,14
465,29	18132,52
465,40	17838,15
465,51	18132,00
465,62	18096,25
465,73	18180,83
465,84	18171,70
465,95	18284,99
466,06	18289,96
466,17	18262,46
466,28	18396,04
466,39	18360,99
466,50	18259,59
466,61	18477,86
466,72	18595,67
466,83	18471,08
466,95	18646,52
467,06	18674,70
467,17	18375,34
467,28	18911,73
467,39	18729,36
467,50	18824,75
467,61	18715,42
467,72	18490,52
467,83	18869,04
467,94	18765,72
468,05	18986,48
468,16	18819,21
468,27	19076,49
468,38	19010,84
468,49	18884,32
468,60	19145,49
468,71	19108,27
468,82	19180,96
468,93	18989,74
469,04	19303,63
469,15	19200,94
469,26	19275,72
469,37	19242,91
469,48	19388,21
469,59	19492,28
469,70	19383,54
469,81	19509,70
469,92	19482,24
470,03	19461,12
470,14	19775,98
470,25	19686,76
470,36	19528,62
470,47	19637,36
470,58	19618,58
470,69	19797,42
470,80	19890,14
470,91	19826,87
471,02	19920,15
471,13	19785,24
471,24	19967,54
471,35	19801,22
471,46	20120,26
471,56	20080,87
471,67	20174,27
471,78	20052,20
471,89	20333,59
472,00	20193,39
472,11	20187,79
472,22	20310,00
472,33	20410,13
472,44	20291,60
472,55	20438,92
472,66	20428,50
472,77	20589,94
472,88	20474,67
472,99	20457,00
473,10	20605,27
473,21	20526,04
473,32	20791,25
473,42	20495,89
473,53	20738,93
473,64	20715,75
473,75	20799,34
473,86	20758,41
473,97	20944,38
474,08	20895,02
474,19	20899,93
474,30	20871,18
474,41	20826,57
474,52	20902,73
474,62	20889,64
474,73	21102,02
474,84	21023,58
474,95	21311,37
475,06	20847,11
475,17	20947,52
475,28	20791,50
475,39	20884,15
475,50	21198,92
475,60	21189,43
475,71	21386,67
475,82	21296,75
475,93	21414,85
476,04	21412,95
476,15	21479,01
476,26	21674,80
476,37	21274,92
476,47	21471,68
476,58	21368,97
476,69	21599,57
476,80	21645,24
476,91	21778,95
477,02	21770,59
477,13	21898,20
477,23	21857,23
477,34	21842,77
477,45	21907,63
477,56	21857,89
477,67	21861,73
477,78	21814,27
477,89	22052,75
477,99	21764,78
478,10	22099,06
478,21	22284,75
478,32	22436,59
478,43	22234,33
478,54	22343,62
478,64	22185,36
478,75	22807,24
478,86	22504,63
478,97	22566,07
479,08	22567,79
479,18	22479,63
479,29	22602,50
479,40	22608,13
479,51	22580,78
479,62	22354,55
479,72	22401,54
479,83	22370,39
479,94	22520,15
480,05	22672,33
480,16	22670,68
480,26	22909,66
480,37	22952,87
480,48	22896,05
480,59	23052,43
480,70	23075,17
480,80	22811,65
480,91	23200,07
481,02	23057,09
481,13	23011,85
481,24	23284,50
481,34	23209,38
481,45	23251,95
481,56	23083,57
481,67	23256,27
481,77	23248,97
481,88	23316,36
481,99	23220,43
482,10	23660,78
482,20	23298,10
482,31	23370,41
482,42	23328,06
482,53	23362,32
482,63	23622,52
482,74	23647,02
482,85	23751,04
482,96	23553,75
483,06	23543,52
483,17	23685,80
483,28	23686,27
483,39	23705,59
483,49	23849,36
483,60	23840,59
483,71	23747,94
483,81	23759,24
483,92	23811,08
484,03	24136,00
484,14	24099,41
484,24	24024,09
484,35	24089,69
484,46	24005,33
484,57	24011,30
484,67	24136,65
484,78	24048,61
484,89	24145,58
484,99	24218,32
485,10	24353,64
485,21	24305,10
485,31	24293,26
485,42	24207,05
485,53	24319,22
485,63	24263,93
485,74	24443,47
485,85	24511,56
485,96	24349,37
486,06	24418,70
486,17	24518,88
486,28	24459,40
486,38	24521,52
486,49	24558,97
486,60	24522,52
486,70	24485,86
486,81	24548,64
486,92	24785,83
487,02	24621,50
487,13	24216,27
487,24	24439,43
487,34	24383,16
487,45	24486,29
487,56	24497,28
487,66	24711,85
487,77	24885,47
487,87	24709,14
487,98	24832,21
488,09	24734,22
488,19	24938,33
488,30	24813,22
488,41	24711,87
488,51	24691,80
488,62	24639,65
488,73	24810,24
488,83	24889,09
488,94	24848,91
489,04	24936,32
489,15	25003,61
489,26	25093,87
489,36	25147,56
489,47	24892,45
489,58	24853,49
489,68	25000,27
489,79	24909,24
489,89	25124,24
490,00	25079,30
490,11	24945,42
490,21	25048,86
490,32	25101,94
490,42	25059,97
490,53	25022,26
490,64	24885,04
490,74	24883,62
490,85	25053,96
490,95	25074,39
491,06	25134,84
491,16	25137,51
491,27	25054,98
491,38	25008,92
491,48	24920,23
491,59	25119,79
491,69	25027,27
491,80	25143,41
491,90	25152,47
492,01	25144,81
492,12	25116,04
492,22	25088,15
492,33	25062,17
492,43	24956,36
492,54	25047,91
492,64	24982,82
492,75	24912,16
492,86	24901,92
492,96	24891,14
493,07	24967,93
493,17	25048,49
493,28	25119,81
493,38	25049,44
493,49	25019,75
493,59	25108,58
493,70	25014,42
493,80	25057,78
493,91	24931,53
494,01	24977,06
494,12	24925,27
494,22	24998,17
494,33	24813,36
494,43	24906,60
494,54	25019,91
494,64	24886,24
494,75	24886,74
494,86	25010,98
494,96	24911,93
495,07	24824,57
495,17	24777,52
495,28	24815,69
495,38	24603,40
495,49	24679,53
495,59	24628,23
495,69	24664,84
495,80	24534,74
495,90	24525,00
496,01	24714,20
496,11	24673,63
496,22	24684,75
496,32	24718,36
496,43	24645,95
496,53	24595,38
496,64	24734,40
496,74	24578,07
496,85	24522,86
496,95	24537,55
497,06	24630,76
497,16	24477,28
497,27	24667,85
497,37	24575,33
497,48	24471,83
497,58	24430,79
497,68	24274,93
497,79	24320,58
497,89	24403,38
498,00	24515,76
498,10	24506,23
498,21	24467,33
498,31	24203,34
498,42	24323,20
498,52	24279,95
498,62	24194,98
498,73	24521,10
498,83	24414,57
498,94	24318,50
499,04	24472,78
499,15	24267,25
499,25	24183,18
499,35	24500,21
499,46	24325,98
499,56	24389,62
499,67	24323,32
499,77	24367,31
499,87	24590,56
499,98	24432,94
500,08	24379,70
500,19	24405,21
500,29	24479,99
500,39	24536,35
500,50	24782,76
500,60	24652,57
500,71	24658,67
500,81	24793,70
500,91	24767,55
501,02	24875,44
501,12	24993,81
501,22	25022,62
501,33	25084,11
501,43	25090,48
501,54	25237,33
501,64	25272,96
501,74	25272,06
501,85	25428,03
501,95	25330,61
502,05	25821,60
502,16	25677,31
502,26	25866,08
502,37	25768,05
502,47	25955,32
502,57	25976,36
502,68	26113,35
502,78	26222,77
502,88	26346,22
502,99	26378,56
503,09	26503,89
503,19	26469,63
503,30	26717,65
503,40	26877,80
503,50	26783,41
503,61	27072,17
503,71	26997,01
503,81	27141,73
503,92	27192,10
504,02	27306,74
504,12	27237,81
504,23	27488,05
504,33	27636,45
504,43	27945,71
504,54	27953,82
504,64	27711,43
504,74	28051,65
504,84	28247,96
504,95	28593,37
505,05	28749,50
505,15	28713,39
505,26	28765,23
505,36	28773,03
505,46	28802,50
505,56	29140,00
505,67	29166,40
505,77	29213,38
505,87	29280,59
505,98	29662,20
506,08	29788,93
506,18	29880,25
506,28	29935,01
506,39	30058,24
506,49	30138,17
506,59	30160,45
506,70	30050,15
506,80	30480,67
506,90	30544,35
507,00	30667,42
507,11	30706,74
507,21	30969,65
507,31	31281,62
507,41	31274,09
507,52	31506,70
507,62	31582,29
507,72	31712,36
507,82	31830,82
507,93	32098,07
508,03	32289,03
508,13	32367,13
508,23	32530,06
508,34	32553,29
508,44	32859,95
508,54	32947,13
508,64	33278,97
508,74	33266,29
508,85	33646,46
508,95	34065,43
509,05	34076,82
509,15	34132,28
509,26	34142,31
509,36	34243,24
509,46	34488,61
509,56	34584,09
509,66	34719,52
509,77	35083,21
509,87	35314,30
509,97	35218,58
510,07	35186,37
510,17	35240,61
510,28	35164,25
510,38	35083,35
510,48	35604,67
510,58	35762,45
510,68	36101,99
510,78	36287,95
510,89	36282,01
510,99	36268,29
511,09	36411,45
511,19	36423,99
511,29	36297,06
511,39	36362,75
511,50	36590,99
511,60	36739,73
511,70	36912,29
511,80	36965,85
511,90	37197,76
512,00	37291,70
512,11	37611,37
512,21	37579,87
512,31	37721,90
512,41	37774,55
512,51	38207,04
512,61	38706,53
512,71	39206,88
512,82	39539,14
512,92	39103,97
513,02	38801,17
513,12	38417,45
513,22	38708,52
513,32	38898,95
513,42	39348,59
513,53	39664,63
513,63	40066,49
513,73	40456,09
513,83	41062,45
513,93	41292,36
514,03	41207,19
514,13	41079,17
514,23	41004,84
514,33	41411,63
514,44	41405,67
514,54	41782,31
514,64	41969,34
514,74	42223,50
514,84	42629,07
514,94	43286,57
515,04	43497,48
515,14	43655,94
515,24	43325,28
515,34	43017,42
515,44	42799,33
515,55	42279,66
515,65	42487,15
515,75	42400,69
515,85	42563,47
515,95	42883,71
516,05	43207,23
516,15	43552,50
516,25	44068,08
516,35	44216,51
516,45	44112,40
516,55	43719,69
516,65	43572,03
516,75	43453,80
516,85	43542,56
516,95	43311,04
517,05	43527,06
517,16	44113,42
517,26	44643,28
517,36	45482,49
517,46	45940,08
517,56	46254,40
517,66	46199,35
517,76	46053,52
517,86	45535,16
517,96	44931,72
518,06	44289,89
518,16	44540,23
518,26	44710,49
518,36	44939,52
518,46	45155,45
518,56	45617,04
518,66	46552,97
518,76	47208,02
518,86	47525,64
518,96	47346,12
519,06	47282,37
519,16	46933,43
519,26	46500,07
519,36	46235,80
519,46	46467,39
519,56	46648,36
519,66	46724,60
519,76	47016,07
519,86	47748,67
519,96	48422,27
520,06	48910,06
520,16	49245,91
520,26	49704,37
520,36	49748,41
520,46	49370,50
520,56	49224,17
520,66	48918,85
520,76	48477,87
520,86	47976,48
520,96	47976,00
521,06	47999,82
521,16	48027,80
521,26	48675,49
521,35	49362,09
521,45	49811,93
521,55	50152,60
521,65	50891,84
521,75	50847,18
521,85	50785,76
521,95	50656,81
522,05	50577,47
522,15	50124,72
522,25	49491,69
522,35	49317,35
522,45	47950,08
522,55	49207,00
522,65	49699,26
522,75	50050,16
522,85	50747,86
522,94	51079,47
523,04	51752,72
523,14	52061,64
523,24	52217,88
523,34	52406,94
523,44	52361,20
523,54	52234,81
523,64	51905,41
523,74	51365,77
523,84	50703,66
523,94	50518,24
524,03	50284,69
524,13	50506,04
524,23	51045,10
524,33	51734,35
524,43	52526,87
524,53	53243,14
524,63	53465,22
524,73	53681,39
524,83	53658,05
524,92	53666,84
525,02	53746,11
525,12	53796,75
525,22	53257,97
525,32	52878,72
525,42	52500,92
525,52	52058,95
525,61	52020,78
525,71	52178,09
525,81	52414,64
525,91	53147,26
526,01	53514,80
526,11	53815,38
526,21	54345,76
526,30	54576,53
526,40	55021,22
526,50	55308,06
526,60	55467,45
526,70	55185,24
526,80	55381,17
526,89	54874,26
526,99	54263,07
527,09	53875,17
527,19	53311,80
527,29	53099,49
527,39	53181,16
527,48	53364,50
527,58	53868,96
527,68	54559,36
527,78	55063,18
527,88	55551,92
527,97	55978,05
528,07	56159,43
528,17	56376,60
528,27	56550,58
528,37	56353,93
528,46	56446,04
528,56	56218,12
528,66	55855,98
528,76	55485,46
528,86	54992,63
528,95	54634,13
529,05	54683,58
529,15	54836,95
529,25	55019,86
529,35	55316,40
529,44	56027,25
529,54	56361,48
529,64	56674,19
529,74	57010,70
529,83	57238,16
529,93	57378,51
530,03	57690,87
530,13	57827,63
530,22	57695,97
530,32	57847,34
530,42	57605,06
530,52	57395,08
530,61	57341,84
530,71	56860,70
530,81	56790,15
530,91	56692,70
531,00	56772,00
531,10	56692,48
531,20	56941,69
531,30	56986,98
531,39	57473,95
531,49	57636,97
531,59	57876,15
531,69	58180,57
531,78	58229,18
531,88	58613,60
531,98	58682,41
532,07	58796,15
532,17	58868,33
532,27	58469,90
532,37	58586,44
532,46	58003,83
532,56	57654,08
532,66	57269,97
532,75	57163,45
532,85	56955,59
532,95	56957,85
533,04	57128,94
533,14	57633,20
533,24	58082,18
533,34	58426,01
533,43	58830,59
533,53	58909,73
533,63	59286,19
533,72	59493,94
533,82	59519,84
533,92	59781,91
534,01	59547,04
534,11	59533,76
534,21	59377,99
534,30	59023,94
534,40	58462,12
534,50	57837,87
534,59	57620,41
534,69	57729,13
534,79	57770,39
534,88	57710,73
534,98	58062,61
535,08	58285,13
535,17	58822,79
535,27	59526,23
535,36	59693,19
535,46	59814,43
535,56	59975,15
535,65	59828,53
535,75	59979,98
535,85	59915,62
535,94	59969,41
536,04	60133,61
536,14	60065,83
536,23	60097,74
536,33	59786,97
536,42	59418,01
536,52	59103,15
536,62	58855,83
536,71	58378,53
536,81	58307,33
536,90	58365,25
537,00	58488,16
537,10	58673,98
537,19	59020,57
537,29	59407,91
537,38	59545,91
537,48	59664,83
537,58	59731,58
537,67	59970,47
537,77	60076,64
537,86	60283,95
537,96	60206,58
538,06	60501,32
538,15	60649,91
538,25	60673,88
538,34	60790,58
538,44	60390,71
538,53	60027,10
538,63	59701,62
538,73	59263,12
538,82	58788,67
538,92	58398,65
539,01	58359,30
539,11	58176,46
539,20	58471,48
539,30	58770,77
539,39	58999,56
539,49	59424,20
539,59	59436,61
539,68	59967,26
539,78	60209,04
539,87	60432,78
539,97	60824,73
540,06	60919,96
540,16	61344,19
540,25	61248,31
540,35	61439,54
540,44	61330,14
540,54	61176,29
540,63	60723,06
540,73	60540,46
540,82	59524,15
540,92	59089,50
541,01	58487,25
541,11	58415,14
541,20	58188,35
541,30	58198,13
541,39	58626,01
541,49	58943,47
541,58	59436,49
541,68	59976,48
541,77	60246,78
541,87	60576,89
541,96	60932,25
542,06	61148,38
542,15	61396,56
542,25	61526,47
542,34	61844,11
542,44	61782,42
542,53	61948,34
542,63	61762,47
542,72	61628,62
542,82	61158,62
542,91	60669,68
543,01	60232,52
543,10	59481,17
543,20	58927,76
543,29	58618,21
543,38	58562,53
543,48	58590,96
543,57	58934,31
543,67	59306,42
543,76	59840,82
543,86	60359,25
543,95	60582,77
544,05	60875,71
544,14	61105,24
544,23	61546,38
544,33	61695,55
544,42	61795,26
544,52	62065,71
544,61	62115,16
544,71	62001,80
544,80	61833,43
544,89	61666,54
544,99	61412,33
545,08	61148,47
545,18	60901,09
545,27	60238,91
545,36	60020,09
545,46	59497,89
545,55	59357,11
545,65	59092,39
545,74	59019,62
545,84	59214,10
545,93	59255,80
546,02	59901,86
546,12	60352,88
546,21	60766,52
546,30	61192,63
546,40	61418,14
546,49	61671,40
546,59	61904,65
546,68	62175,52
546,77	62079,02
546,87	62174,70
546,96	62130,57
547,05	61946,55
547,15	61673,61
547,24	61580,98
547,34	61373,08
547,43	61337,73
547,52	61302,73
547,62	61151,21
547,71	61028,81
547,80	60786,70
547,90	60555,02
547,99	60295,39
548,08	59918,49
548,18	59825,66
548,27	60015,85
548,36	60272,52
548,46	60444,26
548,55	61072,13
548,64	61537,12
548,74	61808,21
548,83	62172,90
548,92	62391,76
549,02	62370,93
549,11	62492,28
549,20	62399,90
549,30	62272,22
549,39	62120,06
549,48	61960,45
549,58	61721,47
549,67	61658,13
549,76	61507,29
549,85	61681,07
549,95	61659,89
550,04	61757,20
550,13	61752,57
550,23	61649,27
550,32	61395,29
550,41	61242,34
550,50	60705,36
550,60	60644,44
550,69	60510,07
550,78	60478,75
550,88	60641,80
550,97	60790,04
551,06	61415,40
551,15	61531,94
551,25	62100,04
551,34	62214,03
551,43	62386,09
551,52	62490,20
551,62	62590,99
551,71	62571,08
551,80	62277,84
551,89	62183,04
551,99	62062,84
552,08	61892,50
552,17	61949,02
552,26	62027,95
552,36	62017,19
552,45	62304,19
552,54	62569,32
552,63	62761,49
552,73	62894,39
552,82	62895,00
552,91	62752,59
553,00	62663,98
553,10	62621,25
553,19	62473,68
553,28	62367,42
553,37	62225,08
553,46	62292,08
553,56	62451,08
553,65	62594,74
553,74	62851,91
553,83	62879,50
553,92	63153,30
554,02	63122,79
554,11	63071,97
554,20	62960,51
554,29	62901,42
554,38	62541,79
554,48	62313,41
554,57	62220,67
554,66	62201,17
554,75	62090,07
554,84	62200,08
554,94	62396,55
555,03	62643,23
555,12	62885,10
555,21	63096,76
555,30	63287,13
555,39	63284,80
555,49	63295,74
555,58	62998,55
555,67	62671,44
555,76	62453,39
555,85	61961,13
555,94	61763,39
556,03	61586,70
556,13	61747,03
556,22	61731,05
556,31	62052,24
556,40	62290,72
556,49	62690,42
556,58	62823,93
556,67	63043,25
556,77	63042,84
556,86	62963,93
556,95	62626,31
557,04	62505,34
557,13	62212,49
557,22	62227,18
557,31	62045,46
557,40	62158,70
557,50	62227,38
557,59	62493,00
557,68	62905,69
557,77	63148,35
557,86	63390,81
557,95	63519,50
558,04	63592,95
558,13	63617,08
558,22	63398,92
558,31	63435,55
558,41	63011,95
558,50	62682,71
558,59	62413,66
558,68	62092,04
558,77	62053,55
558,86	61913,63
558,95	62052,54
559,04	62205,39
559,13	62438,40
559,22	62851,68
559,31	62983,84
559,40	63049,96
559,49	63162,14
559,59	62901,24
559,68	62983,52
559,77	62910,23
559,86	62705,85
559,95	62735,80
560,04	62821,29
560,13	62913,42
560,22	63055,25
560,31	63169,48
560,40	63442,40
560,49	63825,15
560,58	63862,73
560,67	64143,42
560,76	64352,64
560,85	64460,59
560,94	64517,11
561,03	64534,14
561,12	64430,06
561,21	64180,71
561,30	63743,14
561,39	63552,16
561,48	63090,36
561,57	62764,18
561,66	62698,80
561,75	62594,87
561,84	62538,69
561,93	62635,64
562,02	62941,31
562,11	63078,88
562,20	62939,61
562,29	62864,20
562,38	62609,22
562,47	62325,73
562,56	61956,61
562,65	61799,48
562,74	61721,22
562,83	61701,95
562,92	61899,98
563,01	62113,73
563,10	62455,10
563,19	62640,00
563,28	62838,48
563,37	63026,73
563,46	63415,26
563,55	63370,94
563,64	63564,39
563,73	63729,28
563,82	63794,32
563,91	63923,25
564,00	63842,84
564,09	63810,91
564,18	63672,09
564,27	63556,39
564,35	63172,35
564,44	62836,56
564,53	62730,33
564,62	62399,06
564,71	62526,11
564,80	62278,18
564,89	62154,28
564,98	62257,32
565,07	62085,26
565,16	61893,20
565,25	61575,53
565,34	61306,59
565,43	61192,00
565,51	61061,38
565,60	61120,20
565,69	61193,15
565,78	61487,49
565,87	61828,57
565,96	62095,27
566,05	62337,50
566,14	62442,04
566,23	62709,54
566,32	62900,43
566,40	62990,07
566,49	63142,70
566,58	63262,02
566,67	63518,51
566,76	63624,47
566,85	63734,91
566,94	63766,07
567,03	63763,23
567,11	63710,19
567,20	63541,06
567,29	63305,75
567,38	62839,32
567,47	62752,23
567,56	62430,70
567,65	62168,65
567,73	61984,13
567,82	61830,56
567,91	61686,04
568,00	61618,83
568,09	61445,53
568,18	61274,57
568,27	61003,07
568,35	60733,02
568,44	60866,31
568,53	60562,41
568,62	60726,25
568,71	60919,73
568,80	61244,27
568,88	61443,67
568,97	61824,39
569,06	61926,19
569,15	62096,85
569,24	62159,29
569,32	62322,29
569,41	62323,63
569,50	62372,73
569,59	62539,87
569,68	62705,76
569,76	62928,20
569,85	62940,15
569,94	63088,60
570,03	63069,98
570,12	63189,21
570,20	63351,92
570,29	63120,17
570,38	62740,47
570,47	62705,72
570,56	62497,79
570,64	62159,27
570,73	61762,60
570,82	61541,77
570,91	61334,82
570,99	61095,82
571,08	60773,43
571,17	60544,08
571,26	60357,33
571,34	60149,47
571,43	60129,58
571,52	60112,81
571,61	60060,23
571,69	60235,09
571,78	60513,30
571,87	60746,15
571,96	60912,36
572,04	61125,01
572,13	61182,23
572,22	61302,64
572,31	61388,37
572,39	61569,95
572,48	61627,31
572,57	61672,71
572,66	61908,41
572,74	62148,20
572,83	62165,33
572,92	62391,42
573,00	62431,19
573,09	62443,22
573,18	62660,59
573,27	62700,25
573,35	62843,30
573,44	62735,34
573,53	62643,75
573,61	62481,48
573,70	62406,52
573,79	62195,68
573,87	61994,12
573,96	61657,57
574,05	61343,97
574,14	60924,75
574,22	60679,96
574,31	60201,76
574,40	60130,87
574,48	59736,17
574,57	59743,29
574,66	59695,20
574,74	59569,26
574,83	59601,37
574,92	59812,66
575,00	59852,26
575,09	60016,00
575,18	60206,28
575,26	60374,73
575,35	60285,67
575,43	60343,75
575,52	60640,69
575,61	60708,84
575,69	60867,19
575,78	61035,84
575,87	61145,83
575,95	61459,88
576,04	61504,60
576,13	61695,30
576,21	61792,07
576,30	61999,34
576,38	62053,65
576,47	62144,33
576,56	62314,84
576,64	62234,09
576,73	62361,91
576,82	62428,05
576,90	62399,20
576,99	62365,95
577,07	62089,42
577,16	61750,47
577,25	61671,24
577,33	61153,89
577,42	60775,37
577,50	60278,12
577,59	60024,95
577,68	59399,32
577,76	59318,58
577,85	59040,32
577,93	58965,52
578,02	58937,55
578,10	58805,05
578,19	59073,79
578,28	59032,75
578,36	59322,76
578,45	59180,14
578,53	59295,41
578,62	59622,82
578,70	59653,17
578,79	59814,97
578,88	60052,57
578,96	60219,23
579,05	60355,52
579,13	60559,24
579,22	60632,96
579,30	60939,21
579,39	61007,10
579,47	61226,01
579,56	61384,31
579,64	61495,02
579,73	61569,21
579,82	61751,39
579,90	61907,50
579,99	62102,82
580,07	62011,18
580,16	62128,04
580,24	62158,21
580,33	61975,70
580,41	61959,55
580,50	61847,53
580,58	61437,55
580,67	61335,11
580,75	60911,23
580,84	60410,21
580,92	59915,85
581,01	59614,59
581,09	59089,45
581,18	59011,58
581,26	58671,09
581,35	58324,39
581,43	58260,25
581,52	58368,75
581,60	58240,19
581,69	58341,63
581,77	58401,15
581,86	58508,72
581,94	58700,54
582,02	58936,17
582,11	59250,42
582,19	59432,36
582,28	59729,66
582,36	59992,80
582,45	60204,81
582,53	60500,31
582,62	60482,93
582,70	60767,28
582,79	60870,49
582,87	60957,04
582,96	61193,92
583,04	61399,63
583,12	61386,72
583,21	61478,93
583,29	61525,64
583,38	61740,70
583,46	61704,19
583,55	61740,05
583,63	61881,60
583,71	61899,37
583,80	61894,82
583,88	61736,84
583,97	61803,26
584,05	61516,91
584,13	61296,24
584,22	61143,32
584,30	60738,92
584,39	60325,22
584,47	59837,05
584,55	59554,34
584,64	59161,43
584,72	58800,98
584,81	58468,59
584,89	58260,77
584,97	58151,56
585,06	58256,34
585,14	58326,83
585,23	58326,87
585,31	58652,20
585,39	58709,55
585,48	59045,48
585,56	59255,23
585,64	59397,01
585,73	59722,34
585,81	59672,31
585,90	59883,46
585,98	59978,33
586,06	60406,73
586,15	60476,58
586,23	60433,35
586,31	60650,25
586,40	60571,81
586,48	60830,78
586,56	60777,52
586,65	60940,73
586,73	61115,77
586,81	61163,27
586,90	61208,76
586,98	61382,61
587,06	61418,79
587,15	61448,46
587,23	61640,46
587,31	61737,61
587,40	61612,55
587,48	61641,84
587,56	61479,06
587,65	61353,32
587,73	61202,73
587,81	60640,62
587,90	60166,21
587,98	59627,20
588,06	59030,22
588,14	58408,18
588,23	57938,18
588,31	57727,59
588,39	57441,74
588,48	57532,95
588,56	57606,98
588,64	57588,86
588,72	57970,43
588,81	58210,22
588,89	58479,05
588,97	58738,12
589,06	58891,51
589,14	59174,72
589,22	59519,11
589,30	59569,94
589,39	59729,64
589,47	59696,62
589,55	59929,11
589,63	60030,81
589,72	60137,67
589,80	60143,59
589,88	60335,23
589,96	60638,54
590,05	60648,69
590,13	60859,19
590,21	60884,79
590,29	60918,85
590,38	61077,63
590,46	61039,34
590,54	61380,98
590,62	61494,61
590,71	61494,18
590,79	61299,25
590,87	61686,17
590,95	61555,04
591,03	61611,04
591,12	61625,81
591,20	61570,90
591,28	61527,29
591,36	61295,90
591,44	60932,48
591,53	60660,96
591,61	60061,83
591,69	59576,22
591,77	59169,18
591,85	58717,69
591,94	58420,14
592,02	58139,60
592,10	58084,82
592,18	58252,07
592,26	58354,26
592,34	58574,98
592,43	58732,31
592,51	58925,73
592,59	59177,74
592,67	59572,29
592,75	59780,06
592,84	59737,07
592,92	59891,13
593,00	59991,67
593,08	60369,26
593,16	60377,51
593,24	60510,43
593,32	60659,92
593,41	60796,25
593,49	60805,07
593,57	61014,71
593,65	61183,14
593,73	61282,75
593,81	61324,78
593,89	61302,43
593,98	61464,12
594,06	61518,77
594,14	61723,55
594,22	61713,90
594,30	61625,16
594,38	61871,21
594,46	62036,06
594,54	62020,04
594,62	61881,69
594,71	62127,23
594,79	62179,13
594,87	61917,20
594,95	61944,79
595,03	61822,35
595,11	61467,56
595,19	61258,66
595,27	60851,58
595,35	60346,89
595,43	59950,92
595,52	59338,33
595,60	58974,81
595,68	58541,38
595,76	58403,55
595,84	58242,56
595,92	58336,43
596,00	58569,56
596,08	58829,46
596,16	59038,24
596,24	59229,92
596,32	59341,06
596,40	59536,31
596,48	59781,75
596,56	60014,96
596,64	60125,58
596,73	60227,43
596,81	60546,54
596,89	60521,80
596,97	60706,31
597,05	60726,92
597,13	60945,90
597,21	61047,03
597,29	61099,84
597,37	61281,55
597,45	61236,15
597,53	61591,60
597,61	61491,35
597,69	61692,93
597,77	61840,18
597,85	61785,90
597,93	61861,63
598,01	61956,65
598,09	61971,00
598,17	62163,52
598,25	62102,46
598,33	62270,97
598,41	62425,91
598,49	62267,47
598,57	62307,83
598,65	62377,93
598,73	62307,72
598,81	62226,48
598,89	61998,10
598,97	61706,31
599,05	61426,84
599,13	60899,39
599,21	60515,36
599,29	60051,30
599,37	59820,17
599,45	59430,48
599,53	59013,63
599,61	58914,16
599,69	59035,08
599,77	59054,49
599,85	59279,21
599,93	59542,34
600,00	59682,97
600,08	59792,87
600,16	60067,57
600,24	60238,78
600,32	60434,16
600,40	60385,55
600,48	60756,91
600,56	60759,13
600,64	60889,02
600,72	61079,52
600,80	61135,18
600,88	61256,90
600,96	61389,57
601,04	61325,17
601,12	61482,07
601,19	61479,78
601,27	61709,68
601,35	61818,69
601,43	61905,11
601,51	62018,53
601,59	61992,29
601,67	62188,99
601,75	62057,53
601,83	62220,56
601,91	62251,79
601,98	62373,05
602,06	62348,51
602,14	62503,87
602,22	62610,56
602,30	62647,41
602,38	62687,07
602,46	62724,25
602,54	62600,70
602,61	62598,15
602,69	62374,36
602,77	62218,48
602,85	62097,80
602,93	61644,01
603,01	61092,86
603,09	60942,76
603,17	60513,57
603,24	60271,86
603,32	59929,59
603,40	59677,46
603,48	59752,03
603,56	59614,70
603,64	59711,94
603,71	59838,27
603,79	60149,42
603,87	60249,56
603,95	60373,15
604,03	60429,44
604,11	60688,12
604,18	60767,60
604,26	60893,45
604,34	61180,00
604,42	61136,97
604,50	61342,34
604,57	61412,67
604,65	61390,75
604,73	61625,86
604,81	61724,73
604,89	61740,50
604,96	61875,93
605,04	61957,06
605,12	62008,06
605,20	62096,33
605,28	62180,13
605,35	62256,06
605,43	62409,05
605,51	62325,50
605,59	62364,67
605,67	62479,67
605,74	62503,12
605,82	62641,16
605,90	62686,28
605,98	62704,75
606,05	62769,06
606,13	62731,89
606,21	62873,31
606,29	62878,75
606,36	62927,79
606,44	62804,77
606,52	62777,69
606,60	62716,27
606,67	62586,26
606,75	62265,84
606,83	62073,26
606,91	61803,82
606,98	61475,67
607,06	61073,06
607,14	60835,37
607,22	60632,19
607,29	60428,33
607,37	60291,23
607,45	60197,78
607,52	60220,09
607,60	60377,94
607,68	60510,73
607,76	60540,06
607,83	60672,91
607,91	60845,25
607,99	60949,86
608,06	61070,21
608,14	61079,41
608,22	61305,24
608,30	61401,64
608,37	61493,05
608,45	61452,24
608,53	61617,43
608,60	61702,69
608,68	61622,18
608,76	61916,45
608,83	62045,71
608,91	62037,83
608,99	62071,07
609,06	62173,46
609,14	62220,33
609,22	62456,80
609,29	62446,97
609,37	62489,86
609,45	62463,89
609,52	62642,38
609,60	62539,94
609,68	62599,69
609,75	62703,28
609,83	62753,36
609,91	62798,62
609,98	62845,13
610,06	62831,18
610,13	62882,98
610,21	62984,17
610,29	62890,12
610,36	62930,55
610,44	62980,36
610,52	62915,61
610,59	62808,97
610,67	62660,79
610,74	62415,94
610,82	62260,94
610,90	61992,38
610,97	61850,74
611,05	61498,43
611,13	61319,56
611,20	61099,23
611,28	61042,67
611,35	60973,58
611,43	60853,68
611,51	60914,69
611,58	60729,86
611,66	60973,49
611,73	60868,05
611,81	60988,86
611,88	60964,82
611,96	61283,34
612,04	61385,64
612,11	61512,89
612,19	61493,80
612,26	61508,06
612,34	61707,17
612,41	61912,50
612,49	61900,18
612,57	61796,82
612,64	62067,50
612,72	61965,78
612,79	62150,64
612,87	62181,12
612,94	62157,71
613,02	62289,77
613,09	62378,61
613,17	62315,63
613,24	62460,19
613,32	62483,31
613,40	62499,08
613,47	62606,90
613,55	62458,31
613,62	62667,01
613,70	62705,45
613,77	62741,60
613,85	62825,42
613,92	62834,60
614,00	62806,62
614,07	62834,75
614,15	62950,57
614,22	62901,71
614,30	62891,86
614,37	63068,65
614,45	62914,32
614,52	62877,92
614,60	62806,98
614,67	62821,58
614,75	62587,76
614,82	62510,13
614,90	62396,82
614,97	62224,89
615,05	61987,21
615,12	61735,73
615,20	61701,23
615,27	61373,91
615,34	61456,01
615,42	61322,95
615,49	61256,11
615,57	61214,73
615,64	61174,69
615,72	61246,43
615,79	61291,74
615,87	61184,33
615,94	61421,89
616,02	61407,36
616,09	61282,61
616,16	61413,10
616,24	61553,79
616,31	61436,15
616,39	61698,24
616,46	61700,50
616,54	61877,11
616,61	61961,40
616,68	61903,62
616,76	61917,13
616,83	61983,36
616,91	61969,62
616,98	62091,84
617,06	62268,28
617,13	62149,39
617,20	62246,66
617,28	62211,47
617,35	62305,14
617,43	62422,43
617,50	62414,00
617,57	62380,66
>>>>>End Processed Spectral Data<<<<<
